emg,t,emg_filtered,emg_rectified,emg_envelope
4.256573575044968,120,-0.2827768108760109,0.2827768108760109,0.9341426332044224
3.2565735750449676,122,-0.8031731871071219,0.8031731871071219,1.0572292715635832
-3.7434264249550324,124,-7.400529881576657,7.400529881576657,1.1822822016857555
-8.743426424955032,128,-11.829904768510556,11.829904768510556,1.3090915461834896
-8.743426424955032,130,-11.562213806801607,11.562213806801607,1.4374441882825832
-6.743426424955032,132,-8.906965496851168,8.906965496851168,1.5671248635677268
-5.743426424955032,135,-7.823370750310567,7.823370750310567,1.6979172375086462
-8.743426424955032,137,-10.090832041284738,10.090832041284738,1.8296049578061566
-7.743426424955032,139,-9.219814249537642,9.219814249537642,1.961972672619367
-2.7434264249550324,142,-3.441418524193967,3.441418524193967,2.0948070076937393
-1.7434264249550324,144,-2.7659606030660724,2.7659606030660724,2.2278974972085765
-2.7434264249550324,146,-3.015319057941573,3.015319057941573,2.361037464748839
-2.7434264249550324,149,-3.4601631411266274,3.4601631411266274,2.4940248520502952
-5.743426424955032,151,-5.854063719459525,5.854063719459525,2.6266629939735355
-2.7434264249550324,153,-3.296148918696761,3.296148918696761,2.7587613386176484
-0.7434264249550324,156,-0.9705030221718172,0.9705030221718172,2.8901361117952846
0.2565735750449676,158,-0.27495256660940637,0.27495256660940637,3.0206109253905433
-1.7434264249550324,161,-2.3407838007445245,2.3407838007445245,3.1500173293661544
-3.7434264249550324,163,-4.409404579826974,4.409404579826974,3.278195307244896
-1.7434264249550324,165,-2.9079834647461658,2.9079834647461658,3.4049937147252183
5.256573575044968,168,4.282077467562017,4.282077467562017,3.530270660829688
14.256573575044968,171,12.40337299730746,12.40337299730746,3.6538938308018
12.256573575044968,173,10.788739065975296,10.788739065975296,3.7757407499784947
7.256573575044968,176,4.668419537846781,4.668419537846781,3.8956989881758277
2.2565735750449676,178,0.12040131901251616,0.12040131901251616,4.013666304825316
5.256573575044968,180,1.9467616217504888,1.9467616217504888,4.129550736078333
10.256573575044968,183,7.313311145005166,7.313311145005166,4.243270625970135
12.256573575044968,185,8.276207593256952,8.276207593256952,4.3547546041600755
8.256573575044968,187,4.426766919476632,4.426766919476632,4.4639415127958415
4.256573575044968,190,-0.32484893250476343,0.32484893250476343,4.570780285042778
1.2565735750449676,192,-3.4666912003465393,3.4666912003465393,4.675229777990804
-0.7434264249550324,194,-5.850271214033449,5.850271214033449,4.777258562865851
-1.7434264249550324,197,-7.293166599490796,7.293166599490796,4.876844675492726
-2.7434264249550324,199,-8.298156946577423,8.298156946577423,4.9739753297830385
-0.7434264249550324,202,-6.988104261094889,6.988104261094889,5.068646596895601
4.256573575044968,204,-1.6644291354931624,1.6644291354931624,5.160863052842692
7.256573575044968,206,0.49591056234219033,0.49591056234219033,5.250637397666188
6.256573575044968,209,0.06088574908161626,0.06088574908161626,5.337990049640941
13.256573575044968,211,6.184940336744436,6.184940336744436,5.422948717986711
15.256573575044968,214,8.893994197941339,8.893994197941339,5.5055479571624995
15.256573575044968,217,8.084185647740034,8.084185647740034,5.585828705160243
17.256573575044968,219,10.853047521861582,10.853047521861582,5.663837807689533
15.256573575044968,221,8.183881029300997,8.183881029300997,5.739627530052093
9.256573575044968,224,2.9504268736982993,2.9504268736982993,5.8132550588781
6.256573575044968,226,-0.5329292188618782,0.5329292188618782,5.884781996533645
2.2565735750449676,228,-3.8129174020169256,3.8129174020169256,5.954273851589572
-0.7434264249550324,231,-7.086381400232166,7.086381400232166,6.021799528963791
-2.7434264249550324,233,-8.44714894079282,8.44714894079282,6.087430823117443
0.2565735750449676,235,-5.500686702891419,5.500686702891419,6.1512419172149615
2.2565735750449676,238,-2.9689541827402235,2.9689541827402235,6.213308890789115
1.2565735750449676,240,-3.8067070849404026,3.8067070849404026,6.273709238328314
4.256573575044968,243,-0.396492377567057,0.396492377567057,6.332521401171272
13.256573575044968,245,8.956930322754978,8.956930322754978,6.389824314902226
15.256573575044968,247,11.253546259589015,11.253546259589015,6.445696973992617
11.256573575044968,250,7.745908963488297,7.745908963488297,6.50021801488964
9.256573575044968,252,5.965317353663938,5.965317353663938,6.553465318409873
7.256573575044968,254,4.516286233728808,4.516286233728808,6.6055156323428035
4.256573575044968,258,1.7195878024040645,1.7195878024040645,6.656444215476083
-0.7434264249550324,260,-2.766975640630152,2.766975640630152,6.706324504486003
-4.743426424955032,262,-6.511200528025864,6.511200528025864,6.755227805032846
-8.743426424955032,265,-10.123238815136165,10.123238815136165,6.803223007935826
-10.743426424955032,267,-11.764353850452036,11.764353850452036,6.850376330674225
-10.743426424955032,269,-11.554947658259682,11.554947658259682,6.896751083994318
-9.743426424955032,272,-10.082690810990323,10.082690810990323,6.9424074633738035
-7.743426424955032,274,-8.052747809802778,8.052747809802778,6.987402365569802
-6.743426424955032,277,-6.505712670552309,6.505712670552309,7.031789231278943
-4.743426424955032,279,-4.604660329594443,4.604660329594443,7.075617915782134
-3.7434264249550324,281,-3.059865929795463,3.059865929795463,7.118934590079979
0.2565735750449676,284,0.7950516858411643,0.7950516858411643,7.1617816752968775
2.2565735750449676,286,3.2475152689299396,3.2475152689299396,7.204197812985341
5.256573575044968,288,6.141594681340858,6.141594681340858,7.246217873409217
9.256573575044968,291,10.42761364545035,10.42761364545035,7.287873003029579
6.256573575044968,293,7.421454295780192,7.421454295780192,7.32919071149179
2.2565735750449676,295,3.5038735426855085,3.5038735426855085,7.370194997703916
2.2565735750449676,299,3.6177044840580903,3.6177044840580903,7.410906514246191
2.2565735750449676,301,3.5043226242486436,3.5043226242486436,7.451342769213017
5.256573575044968,303,6.715192979621373,6.715192979621373,7.491518364359041
7.256573575044968,306,8.455100703221913,8.455100703221913,7.531445267927481
6.256573575044968,308,7.705227842953127,7.705227842953127,7.571133119881787
10.256573575044968,310,11.374738037723045,11.374738037723045,7.610589566685312
8.256573575044968,313,9.590176275151684,9.590176275151684,7.649820622464616
2.2565735750449676,315,3.2704854014954865,3.2704854014954865,7.688831053392452
-1.7434264249550324,318,-0.6149679758689439,0.6149679758689439,7.727624782342111
-4.743426424955032,320,-3.8598383301668426,3.8598383301668426,7.7662053110653995
-6.743426424955032,322,-5.886388293718307,5.886388293718307,7.804576157029737
-9.743426424955032,325,-9.021021987347172,9.021021987347172,7.842741301464674
-10.743426424955032,327,-10.197582606769991,10.197582606769991,7.880705644291533
-9.743426424955032,329,-9.213760424764331,9.213760424764331,7.918475460819474
-10.743426424955032,332,-10.523257753568448,10.523257753568448,7.956058854670998
-11.743426424955032,334,-11.431497616409484,11.431497616409484,7.993466201394509
-11.743426424955032,336,-11.840294792974488,11.840294792974488,8.030710577518239
-11.743426424955032,339,-11.659937214716603,11.659937214716603,8.067808170283332
-7.743426424955032,342,-8.12803006249674,8.12803006249674,8.104778663914745
-0.7434264249550324,344,-0.8773978323493372,0.8773978323493372,8.141645598999498
9.256573575044968,347,8.631164660397253,8.631164660397253,8.178436702196272
14.256573575044968,349,13.943651582754557,13.943651582754557,8.215184183871507
16.256573575044968,351,15.452316406895182,15.452316406895182,8.251925001255628
16.256573575044968,354,15.832562180032822,15.832562180032822,8.28870108459722
14.256573575044968,356,13.350240580758005,13.350240580758005,8.325559524026797
9.256573575044968,359,8.81457978791951,8.81457978791951,8.362552715680819
1.2565735750449676,361,0.34224055908916995,0.34224055908916995,8.399738466909552
-7.743426424955032,363,-8.09389733383589,8.09389733383589,8.437180061645648
-11.743426424955032,366,-12.552010016053694,12.552010016053694,8.474946287793323
-13.743426424955032,368,-13.886071670311537,13.886071670311537,8.513111428654767
-13.743426424955032,370,-14.314641330108515,14.314641330108515,8.551755220232762
-12.743426424955032,373,-12.561954947428163,12.561954947428163,8.590962776261678
-3.7434264249550324,375,-3.9356033414755855,3.9356033414755855,8.630824483331452
0.2565735750449676,377,0.8745556422913001,0.8745556422913001,8.6714358693437
0.2565735750449676,380,0.5833500478703479,0.5833500478703479,8.712897449326949
0.2565735750449676,382,1.4153968703360613,1.4153968703360613,8.755314552856529
-2.7434264249550324,385,-1.771385920390017,1.771385920390017,8.798797136727364
-1.7434264249550324,388,0.04540072234390802,0.04540072234390802,8.843459585222815
6.256573575044968,390,7.975917324956994,7.975917324956994,8.889420498630471
13.256573575044968,392,15.741119993661082,15.741119993661082,8.93680246888505
21.256573575044968,395,23.789121931246882,23.789121931246882,8.985731839651942
18.256573575044968,397,21.473057687488208,21.473057687488208,9.036338447196973
10.256573575044968,400,13.618731172368786,13.618731172368786,9.088755338463333
5.256573575044968,402,9.206951147415607,9.206951147415607,9.143118464040805
1.2565735750449676,404,5.4053873092929825,5.4053873092929825,9.199566345742868
-1.7434264249550324,407,2.9008286575297264,2.9008286575297264,9.258239720498183
-3.7434264249550324,409,1.0884494986840334,1.0884494986840334,9.31928116351861
-5.743426424955032,411,-0.4989556940608635,0.4989556940608635,9.382834693959303
-9.743426424955032,414,-4.385770718014525,4.385770718014525,9.449045365636197
-14.743426424955032,416,-9.05745458792625,9.05745458792625,9.518058844074593
-17.743426424955032,418,-12.060527127852314,12.060527127852314,9.590020969570105
-20.743426424955032,421,-14.844907389017937,14.844907389017937,9.66507730445664
-22.743426424955032,423,-16.97029639749271,16.97029639749271,9.743372661781976
-21.743426424955032,425,-15.926538861998168,15.926538861998168,9.825050612316058
-19.743426424955032,429,-14.145408277876411,14.145408277876411,9.910252967265798
-19.743426424955032,431,-14.351752396214842,14.351752396214842,9.999119235071383
-18.743426424955032,434,-13.616860324751698,13.616860324751698,10.091786051948194
-13.743426424955032,436,-9.146073565073706,9.146073565073706,10.188386587153483
-0.7434264249550324,438,3.5815988143271458,3.5815988143271458,10.28904992510991
14.256573575044968,441,17.690985989069418,17.690985989069418,10.393900427371847
21.256573575044968,443,24.41682801763641,24.41682801763641,10.50305707788771
18.256573575044968,445,20.180362689954606,20.180362689954606,10.616632815236057
9.256573575044968,448,10.865489944761284,10.865489944761284,10.7347338559742
5.256573575044968,450,5.352087112313419,5.352087112313419,10.857459014361815
1.2565735750449676,452,0.9253941425986225,0.9253941425986225,10.984899025315565
-0.7434264249550324,455,-2.766025240636112,2.766025240636112,11.117135878747074
-3.7434264249550324,457,-6.3774958188572555,6.3774958188572555,11.25424217374516
0.2565735750449676,459,-4.1528534084498085,4.1528534084498085,11.396280500268741
1.2565735750449676,462,-3.9917765868514397,3.9917765868514397,11.54330285450604
-2.7434264249550324,464,-9.788349818689538,9.788349818689538,11.695350092314989
-4.743426424955032,466,-12.853033452555714,12.853033452555714,11.852451423479714
-7.743426424955032,470,-17.641554735204096,17.641554735204096,12.014623948031398
-5.743426424955032,472,-16.898653770233814,16.898653770233814,12.181872234762375
3.2565735750449676,475,-9.662186734655478,9.662186734655478,12.354187941531482
24.256573575044968,477,9.925454507576202,9.925454507576202,12.531549477065305
49.25657357504497,479,33.21579946720548,33.21579946720548,12.71392170445208
48.25657357504497,482,30.67023810854154,30.67023810854154,12.901255687103882
32.25657357504497,484,13.060697579921385,13.060697579921385,13.093488478733036
19.256573575044968,486,-1.606278317896031,1.606278317896031,13.29054296029527
11.256573575044968,489,-11.069562275228039,11.069562275228039,13.492327728902772
9.256573575044968,491,-14.834573976119325,14.834573976119325,13.698737045570095
17.256573575044968,493,-8.131150453947996,8.131150453947996,13.9096508494401
29.256573575044968,496,2.062064110807017,2.062064110807017,14.124934845830033
33.25657357504497,498,4.9091561675783835,4.9091561675783835,14.344440674613525
43.25657357504497,500,13.15986321410087,13.15986321410087,14.568006164404009
42.25657357504497,503,11.077675253891227,11.077675253891227,14.795455676619056
34.25657357504497,505,1.530547951007549,1.530547951007549,15.026600541813206
42.25657357504497,507,8.392787349893567,8.392787349893567,15.261239588965084
37.25657357504497,510,2.241501423630769,2.241501423630769,15.49915976682139
23.256573575044968,513,-13.135489283901727,13.135489283901727,15.740136854723797
18.256573575044968,516,-18.65070399853721,18.65070399853721,15.983936258390768
26.256573575044968,518,-12.49282619268033,12.49282619268033,16.230313884072192
27.256573575044968,520,-11.122488779696683,11.122488779696683,16.479017082755544
21.256573575044968,523,-19.634344385704512,19.634344385704512,16.72978565493781
21.256573575044968,525,-18.211220269495147,18.211220269495147,16.9823529057794
21.256573575044968,527,-21.46419507841033,21.46419507841033,17.236446739978028
32.25657357504497,530,-8.023984349364607,8.023984349364607,17.49179078539396
47.25657357504497,532,3.1534740064822806,3.1534740064822806,17.748105534376485
57.25657357504497,534,16.29362658148778,16.29362658148778,18.005109491669764
99.25657357504497,537,54.342360544885494,54.342360544885494,18.262520317284416
104.25657357504497,539,62.62327510195357,62.62327510195357,18.520055951859096
87.25657357504497,541,42.14432574211764,42.14432574211764,18.7774357119125
51.25657357504497,544,8.936110861643725,8.936110861643725,19.034381344541146
30.256573575044968,546,-14.52197211265198,14.52197211265198,19.290618035863652
22.256573575044968,548,-20.690440999876017,20.690440999876017,19.545875373146494
33.25657357504497,551,-10.844759707258383,10.844759707258383,19.799888264721364
41.25657357504497,553,-2.112319070766552,2.112319070766552,20.052397823515612
34.25657357504497,557,-9.052301878305435,9.052301878305435,20.303152219829315
19.256573575044968,559,-24.193386611791034,24.193386611791034,20.551907507728362
9.256573575044968,561,-33.327233753539694,33.327233753539694,20.79842842749006
37.25657357504497,564,-5.87804131620356,5.87804131620356,21.042489184429044
56.25657357504497,566,14.258046471540752,14.258046471540752,21.2838742028976
68.25657357504497,568,25.776200727433817,25.776200727433817,21.522378853566714
65.25657357504497,571,23.751798320011268,23.751798320011268,21.757810151716956
45.25657357504497,573,3.6273644591458396,3.6273644591458396,21.989987423657038
43.25657357504497,575,2.2741293710177373,2.2741293710177373,22.21874293758373
48.25657357504497,578,7.52351805315797,7.52351805315797,22.44392249425191
65.25657357504497,580,24.942545320838637,24.942545320838637,22.66538597127116
67.25657357504497,582,27.37679696487468,27.37679696487468,22.883007812335894
47.25657357504497,585,7.819931925312164,7.819931925312164,23.096677449753606
25.256573575044968,587,-13.80330764500673,13.80330764500673,23.306299646225494
-5.743426424955032,590,-44.09150383251075,44.09150383251075,23.511794740301017
-26.743426424955032,592,-64.9227941151413,64.9227941151413,23.713098778910652
-25.743426424955032,594,-62.821989693052366,62.821989693052366,23.910163519923852
-24.743426424955032,598,-61.8414038242089,61.8414038242089,24.10295628888159
-17.743426424955032,600,-53.39579210583325,53.39579210583325,24.291459678093307
22.256573575044968,602,-13.415566344547031,13.415566344547031,24.475671083053154
43.25657357504497,605,9.200526821170708,9.200526821170708,24.655602079065456
38.25657357504497,607,4.467242867702495,4.467242867702495,24.8312776479198
51.25657357504497,609,19.031709641252807,19.031709641252807,25.002735268613105
79.25657357504497,612,47.87282313192088,47.87282313192088,25.170023886880983
87.25657357504497,614,57.20408236567924,57.20408236567924,25.33320277674091
73.25657357504497,616,44.823857812810935,44.823857812810935,25.492340305580495
54.25657357504497,619,26.838987519217834,26.838987519217834,25.647512614580315
44.25657357504497,621,19.315413103438043,19.315413103438043,25.798802228999627
18.256573575044968,623,-5.961388860142225,5.961388860142225,25.9462966168498
-15.743426424955032,626,-36.66415165555236,36.66415165555236,26.09008671775431
12.256573575044968,628,-8.14643914904652,8.14643914904652,26.230265465104992
23.256573575044968,631,6.8814450410065175,6.8814450410065175,26.36692632409575
13.256573575044968,633,-2.729955468822631,2.729955468822631,26.50016186665874
35.25657357504497,635,23.94649130772939,23.94649130772939,26.63006240215612
50.25657357504497,638,39.22971276236518,39.22971276236518,26.756714679779197
45.25657357504497,641,39.49033795307371,39.49033795307371,26.88020067523808
41.25657357504497,643,35.66348037082879,35.66348037082879,27.000596471577353
23.256573575044968,646,23.41286609759437,23.41286609759437,27.117971242924217
2.2565735750449676,648,2.5066438140717224,2.5066438140717224,27.232386350715288
-38.74342642495503,650,-32.44040407869761,32.44040407869761,27.343894563361374
-42.74342642495503,653,-36.308709593140264,36.308709593140264,27.452539411038373
-30.743426424955032,655,-18.256148413968795,18.256148413968795,27.55835468681268
-30.743426424955032,657,-17.864550103858452,17.864550103858452,27.66136410423143
-34.74342642495503,660,-16.23248048924479,16.23248048924479,27.761581120647527
-39.74342642495503,662,-20.26299243440263,20.26299243440263,27.85900893488096
-39.74342642495503,665,-15.557624360075799,15.557624360075799,27.953640666715376
-27.743426424955032,667,-1.6387126562962635,1.6387126562962635,28.04545972389604
-28.743426424955032,669,0.6221996034255781,0.6221996034255781,28.134440359868126
-27.743426424955032,672,4.8185196223660345,4.8185196223660345,28.220548422455266
-36.74342642495503,674,-2.764118662310622,2.764118662310622,28.303742289715597
-32.74342642495503,676,5.8522208850863375,5.8522208850863375,28.383973984189097
-18.743426424955032,679,19.293536032958052,19.293536032958052,28.461190451004843
-44.74342642495503,681,-0.8365429154021129,0.8365429154021129,28.535334979430527
-69.74342642495503,684,-28.148635846094813,28.148635846094813,28.606348741897666
-98.74342642495503,687,-50.53097001056139,50.53097001056139,28.67417241960779
-101.74342642495503,689,-57.04708603049118,57.04708603049118,28.73874787983498
-80.74342642495503,691,-29.434316802745393,29.434316802745393,28.800019867663956
-39.74342642495503,694,7.57712388868217,7.57712388868217,28.857937674860015
-3.7434264249550324,696,49.374839432740444,49.374839432740444,28.91245675055173
60.25657357504497,698,109.61180654385939,109.61180654385939,28.96354022092464
55.25657357504497,701,108.95515968111127,108.95515968111127,29.011160287328035
0.2565735750449676,703,50.86406497098703,50.86406497098703,29.05529947560123
-53.74342642495503,706,-0.5274541618841191,0.5274541618841191,29.09595171647271
-82.74342642495503,708,-31.88489790709856,31.88489790709856,29.13312324743663
-94.74342642495503,710,-42.86979270096589,42.86979270096589,29.166833336950027
-95.74342642495503,713,-45.79742527643374,45.79742527643374,29.197114838460802
-87.74342642495503,715,-37.9097956185079,37.9097956185079,29.224014584444834
-81.74342642495503,717,-33.9102259636108,33.9102259636108,29.247593631800918
-58.74342642495503,720,-11.57264786536261,11.57264786536261,29.26792737162663
-35.74342642495503,722,8.886916658248655,8.886916658248655,29.285105518543265
-47.74342642495503,724,-3.8628136444841434,3.8628136444841434,29.29923199615725
-61.74342642495503,728,-21.183436525635585,21.183436525635585,29.310424734880332
-64.74342642495503,730,-24.810373091493624,24.810373091493624,29.318815395941158
-58.74342642495503,732,-22.855276375966007,22.855276375966007,29.32454903171369
-54.74342642495503,735,-19.403953512658756,19.403953512658756,29.32778368866793
-15.743426424955032,737,15.11410539259271,15.11410539259271,29.328689956176817
13.256573575044968,740,43.45456509226128,43.45456509226128,29.327450462126574
19.256573575044968,742,44.909022915260586,44.909022915260586,29.324259314392332
18.256573575044968,744,42.95344818630475,42.95344818630475,29.31932148577972
1.2565735750449676,747,21.661604443947187,21.661604443947187,29.312852139607774
-33.74342642495503,749,-14.66418374501926,14.66418374501926,29.30507589409529
-45.74342642495503,751,-30.514239877852784,30.514239877852784,29.29622602545537
-46.74342642495503,754,-33.15282121703876,33.15282121703876,29.286543610815077
-47.74342642495503,756,-37.48375969483435,37.48375969483435,29.27627661209286
-49.74342642495503,758,-41.31328247955939,41.31328247955939,29.26567890132067
-46.74342642495503,761,-41.0644478615138,41.0644478615138,29.255009227641228
0.2565735750449676,763,3.9788492249296574,3.9788492249296574,29.244530126922054
46.25657357504497,765,47.97168509568581,47.97168509568581,29.234506776376023
60.25657357504497,769,59.782755225407875,59.782755225407875,29.225205798043962
54.25657357504497,771,52.85384740854835,52.85384740854835,29.21689401608049
33.25657357504497,773,29.142275423921586,29.142275423921586,29.209837174109914
17.256573575044968,776,13.740844344411803,13.740844344411803,29.204298621477268
0.2565735750449676,778,-6.855057298412458,6.855057298412458,29.200537980799727
-9.743426424955032,781,-14.333117618961658,14.333117618961658,29.198809812143928
-36.74342642495503,783,-46.057789130248864,46.057789130248864,29.1993622898259
-51.74342642495503,785,-56.453545477162784,56.453545477162784,29.202435906244787
22.256573575044968,788,11.706682404983292,11.706682404983292,29.208262214904643
49.25657357504497,790,45.238529310076295,45.238529310076295,29.217062623714153
41.25657357504497,792,30.553123233706945,30.553123233706945,29.22904725038091
8.256573575044968,795,5.620613565724512,5.620613565724512,29.244413853330723
-3.7434264249550324,797,-13.516084469646223,13.516084469646223,29.26334685287765
-23.743426424955032,799,-24.383527387102845,24.383527387102845,29.286016457661713
6.256573575044968,802,-1.604003851780511,1.604003851780511,29.31257791032866
29.256573575044968,804,31.16694286663647,31.16694286663647,29.34317086406399
7.256573575044968,806,2.1339663979807657,2.1339663979807657,29.37791889841567
-19.743426424955032,809,-14.821989958859255,14.821989958859255,29.4169291794216
8.256573575044968,812,6.5448484106599345,6.5448484106599345,29.460292265592077
5.256573575044968,815,13.491742659705222,13.491742659705222,29.508082057639886
-0.7434264249550324,817,1.4964463522237725,1.4964463522237725,29.560355885806686
-27.743426424955032,819,-16.097822696316488,16.097822696316488,29.61715472416986
-31.743426424955032,822,-25.143107102867525,25.143107102867525,29.67850351656432
-21.743426424955032,824,-6.79971605200546,6.79971605200546,29.744411593960262
27.256573575044968,826,38.46168718208346,38.46168718208346,29.81487315866072
51.25657357504497,829,69.21911739515161,69.21911739515161,29.889867806922915
63.25657357504497,831,79.09310514163668,79.09310514163668,29.96936105904768
34.25657357504497,833,54.859446637169995,54.859446637169995,30.05330486552857
-24.743426424955032,836,-4.514817229209523,4.514817229209523,30.14163806052353
-71.74342642495503,838,-48.911529814589805,48.911529814589805,30.23428673943386
-94.74342642495503,840,-70.64711699910583,70.64711699910583,30.331164543612655
-101.74342642495503,843,-77.08000753635241,77.08000753635241,30.43217284006908
-97.74342642495503,845,-70.56987567115785,70.56987567115785,30.537200787727972
-88.74342642495503,847,-62.60943258489032,62.60943258489032,30.646125286480462
-68.74342642495503,850,-39.49487819548031,39.49487819548031,30.758810812297195
-41.74342642495503,852,-14.46554674148948,14.46554674148948,30.87510915029125
-25.743426424955032,856,4.454564653770667,4.454564653770667,30.994859045746253
0.2565735750449676,858,28.35333674560693,28.35333674560693,31.117885798777323
10.256573575044968,860,40.275955900565435,40.275955900565435,31.244000830443394
3.2565735750449676,863,31.788303399996405,31.788303399996405,31.373001247283923
-25.743426424955032,865,3.103421179457288,3.103421179457288,31.50466942919507
-42.74342642495503,867,-14.286628350971123,14.286628350971123,31.638772663881465
-38.74342642495503,870,-11.810847879536515,11.810847879536515,31.775062849865108
-19.743426424955032,872,7.964292588215176,7.964292588215176,31.913276288100263
5.256573575044968,874,29.846703309694572,29.846703309694572,32.0531335789278
3.2565735750449676,877,29.397747778888206,29.397747778888206,32.19433963678979
-2.7434264249550324,879,19.3724074744648,19.3724074744648,32.336583830758265
-9.743426424955032,881,13.957725291235361,13.957725291235361,32.479540255287056
8.256573575044968,884,27.97467471651347,27.97467471651347,32.622868132842434
3.2565735750449676,886,23.71917602876141,23.71917602876141,32.766212347729734
-28.743426424955032,888,-11.261423356367025,11.261423356367025,32.90920410796096
-54.74342642495503,891,-38.11024144879164,38.11024144879164,33.051461729321524
-62.74342642495503,893,-47.365047028030205,47.365047028030205,33.192591533122595
-60.74342642495503,897,-48.22804231717038,48.22804231717038,33.332188846784085
-54.74342642495503,899,-41.43768018575103,41.43768018575103,33.46983909496067
-31.743426424955032,901,-23.296820834145016,23.296820834145016,33.60511896901549
3.2565735750449676,904,14.402518802438435,14.402518802438435,33.73759766411856
39.25657357504497,906,43.991239096594796,43.991239096594796,33.8668381749676
31.256573575044968,908,40.07511117072859,40.07511117072859,33.9923986418675
50.25657357504497,911,51.85969875350368,51.85969875350368,34.11383373845468
61.25657357504497,913,67.5753065022717,67.5753065022717,34.23069609172308
51.25657357504497,915,50.42000157946116,50.42000157946116,34.34253772551903
8.256573575044968,918,11.980522560369245,11.980522560369245,34.448911520964984
-19.743426424955032,920,-22.32032135019727,22.32032135019727,34.54937269091325
-16.743426424955032,922,-15.573090053261367,15.573090053261367,34.64348026906395
19.256573575044968,925,15.57477664101765,15.57477664101765,34.730798616071255
13.256573575044968,927,12.074862451306934,12.074862451306934,34.81089894402444
-15.743426424955032,930,-19.99418997651714,19.99418997651714,34.88336085766417
-28.743426424955032,932,-31.920134082008946,31.920134082008946,34.94777390658622
-35.74342642495503,934,-40.13460438991811,40.13460438991811,35.0037391382856
-50.74342642495503,937,-55.425062502224215,55.425062502224215,35.05087063792152
-59.74342642495503,940,-63.947648038258315,63.947648038258315,35.08879703797152
-55.74342642495503,942,-61.33362950067733,61.33362950067733,35.11716298023961
-47.74342642495503,945,-51.52711211436032,51.52711211436032,35.1356305143448
-42.74342642495503,947,-48.56485855815287,48.56485855815287,35.14388042060432
3.2565735750449676,949,0.04174516509958437,0.04174516509958437,35.14161345023501
75.25657357504497,952,69.92737600939219,69.92737600939219,35.12855148065498
75.25657357504497,954,72.69764525802094,72.69764525802094,35.10443858716543
49.25657357504497,956,45.128276265252055,45.128276265252055,35.06904203434975
35.25657357504497,959,33.427228333084244,33.427228333084244,35.022153192498195
28.256573575044968,961,25.938492169992465,25.938492169992465,34.96358838757157
6.256573575044968,963,5.2735977158196,5.2735977158196,34.89318969715371
-4.743426424955032,966,-4.823118798391656,4.823118798391656,34.81082570760878
6.256573575044968,968,6.316144684499312,6.316144684499312,34.716392247796826
21.256573575044968,971,23.612794906009757,23.612794906009757,34.60981311199866
45.25657357504497,973,46.63071941336268,46.63071941336268,34.491040779891506
39.25657357504497,975,44.01271225276823,44.01271225276823,34.360057135894344
4.256573575044968,978,7.24982977142982,7.24982977142982,34.21687418563922
-21.743426424955032,980,-14.818292605143137,14.818292605143137,34.06153476472657
2.2565735750449676,983,7.139617187583559,7.139617187583559,33.89411323375655
21.256573575044968,986,29.988018784899324,29.988018784899324,33.71471615222378
20.256573575044968,988,27.198403276882797,27.198403276882797,33.523482921021504
11.256573575044968,990,21.37040880913369,21.37040880913369,33.320586379338174
-9.743426424955032,993,-0.7281232982522976,0.7281232982522976,33.10623333780024
-48.74342642495503,995,-37.66601546362979,37.66601546362979,32.88066502643563
-70.74342642495503,997,-59.82355655676098,59.82355655676098,32.64415743309091
-84.74342642495503,1000,-73.0602622875298,73.0602622875298,32.39702150512926
-88.74342642495503,1002,-76.27332868904442,76.27332868904442,32.139603185551586
-90.74342642495503,1005,-78.71502483749997,78.71502483749997,31.872283255818438
-88.74342642495503,1007,-75.2295130650428,75.2295130650428,31.595476962495972
-53.74342642495503,1009,-41.53011656452391,41.53011656452391,31.30963341281564
-17.743426424955032,1012,-3.7702814678704755,3.7702814678704755,31.0152347337821
-10.743426424955032,1014,1.5590387156268122,1.5590387156268122,30.71279499859112
-12.743426424955032,1017,1.1297103348253152,1.1297103348253152,30.402858930600463
32.25657357504497,1019,44.557264516204825,44.557264516204825,30.086000397287368
47.25657357504497,1021,60.59973737798435,60.59973737798435,29.76282070472372
27.256573575044968,1025,39.415382466585896,39.415382466585896,29.433946699425935
48.25657357504497,1027,60.83691664369994,60.83691664369994,29.100028682026167
56.25657357504497,1030,68.06573396927998,68.06573396927998,28.76173813782904
14.256573575044968,1032,26.04770428724065,26.04770428724065,28.41976529278901
-20.743426424955032,1034,-9.534667271351065,9.534667271351065,28.074816508588274
-40.74342642495503,1037,-29.604051106093596,29.604051106093596,27.727611535935576
-44.74342642495503,1039,-34.37577684197384,34.37577684197384,27.378880649429252
-28.743426424955032,1042,-18.029058724693638,18.029058724693638,27.029361689321938
0.2565735750449676,1044,9.61793497971766,9.61793497971766,26.67979703566262
27.256573575044968,1046,37.77286634704468,37.77286634704468,26.330930539709254
29.256573575044968,1049,37.58498195968488,37.58498195968488,25.983504436760608
12.256573575044968,1051,22.721070953314513,22.721070953314513,25.638256263717423
-9.743426424955032,1054,-2.2999701474381897,2.2999701474381897,25.295915804124753
-26.743426424955032,1056,-16.306723602792935,16.306723602792935,24.95720208347277
0.2565735750449676,1059,7.121396100527374,7.121396100527374,24.622820437548757
9.256573575044968,1061,19.585680561840846,19.585680561840846,24.29345967562982
3.2565735750449676,1063,9.934339338636834,9.934339338636834,23.969789358022695
-26.743426424955032,1067,-16.63718482613045,16.63718482613045,23.65245720450618
-40.74342642495503,1069,-33.8766117058016,33.8766117058016,23.342086647313284
-37.74342642495503,1072,-27.93187124625088,27.93187124625088,23.039274539786476
-22.743426424955032,1074,-15.410158685962568,15.410158685962568,22.74458903003701
-19.743426424955032,1076,-10.206343790904103,10.206343790904103,22.458567608081676
-25.743426424955032,1079,-17.79967905884147,17.79967905884147,22.181715334799716
-10.743426424955032,1081,-1.3674602146971626,1.3674602146971626,21.914503260871246
9.256573575044968,1084,17.8367712908858,17.8367712908858,21.657367042915443
-11.743426424955032,1086,-2.3577639433999753,2.3577639433999753,21.410705762215716
-35.74342642495503,1088,-26.574632800583586,26.574632800583586,21.174880948990175
-31.743426424955032,1091,-22.168878493539566,22.168878493539566,20.950215812517495
-23.743426424955032,1093,-14.058755440653936,14.058755440653936,20.736994674993998
-19.743426424955032,1096,-9.836271537171838,9.836271537171838,20.535462605192155
-5.743426424955032,1098,4.397541403434214,4.397541403434214,20.345825246863413
3.2565735750449676,1100,13.576158151587864,13.576158151587864,20.168248835872394
-4.743426424955032,1103,5.826339759627631,5.826339759627631,20.002860398606465
-17.743426424955032,1105,-7.004707288488683,7.004707288488683,19.84974812204638
-11.743426424955032,1108,-0.7413841619098837,0.7413841619098837,19.708961883243575
19.256573575044968,1111,30.35566143889702,30.35566143889702,19.580513923094784
45.25657357504497,1113,56.708715017889375,56.708715017889375,19.464379646424586
47.25657357504497,1116,58.61170086726811,58.61170086726811,19.360498528065992
25.256573575044968,1118,37.16431386128929,37.16431386128929,19.268775104120678
-7.743426424955032,1121,3.7459336468360434,3.7459336468360434,19.189080029982453
-29.743426424955032,1123,-17.417057695119688,17.417057695119688,19.121251191594087
-42.74342642495503,1125,-31.229531307457872,31.229531307457872,19.065094861676883
-42.74342642495503,1128,-30.100488322197805,30.100488322197805,19.020386896246226
-7.743426424955032,1130,3.717438511313066,3.717438511313066,18.986873968293732
17.256573575044968,1133,30.046362057687865,30.046362057687865,18.964274836228757
4.256573575044968,1135,15.620729105898672,15.620729105898672,18.952281645418243
-21.743426424955032,1137,-9.021793228081828,9.021793228081828,18.950561261850805
-37.74342642495503,1140,-26.50177101949194,26.50177101949194,18.958756637254073
-56.74342642495503,1142,-44.30825792897883,44.30825792897883,18.976488204944417
-47.74342642495503,1145,-36.65795808079368,36.65795808079368,19.003355305627508
-23.743426424955032,1147,-11.767187120884351,11.767187120884351,19.03893764292302
-11.743426424955032,1150,-0.8779266390529159,0.8779266390529159,19.082796770088468
-23.743426424955032,1153,-12.314423648590887,12.314423648590887,19.134477611828512
-37.74342642495503,1155,-27.195065246078872,27.195065246078872,19.19351002680682
-28.743426424955032,1158,-17.853708785570927,17.853708785570927,19.259410416564794
-13.743426424955032,1160,-3.621097706033588,3.621097706033588,19.33168338544593
-15.743426424955032,1163,-5.304475923566585,5.304475923566585,19.409823454921266
-19.743426424955032,1165,-10.130206307109916,10.130206307109916,19.4933168347477
-9.743426424955032,1167,0.3821161090473808,0.3821161090473808,19.581643252094224
4.256573575044968,1170,13.339529001256741,13.339529001256741,19.67427783764095
-2.7434264249550324,1172,7.2227558390262665,7.2227558390262665,19.770693064825924
-12.743426424955032,1175,-4.130915181126748,4.130915181126748,19.87036073531609
5.256573575044968,1177,15.213573185833422,15.213573185833422,19.972754000708637
32.25657357504497,1179,40.53263716060251,40.53263716060251,20.077349407547946
19.256573575044968,1182,29.347111005564038,29.347111005564038,20.183628950173297
8.256573575044968,1184,16.372616027510883,16.372616027510883,20.29108211422936
8.256573575044968,1187,18.62428976493057,18.62428976493057,20.399207893417618
29.256573575044968,1189,37.38924853738891,37.38924853738891,20.50751676304121
28.256573575044968,1191,39.04947504209414,39.04947504209414,20.615532595227048
-11.743426424955032,1195,-3.4470447311100187,3.4470447311100187,20.72279450190907
-32.74342642495503,1197,-21.389868459946236,21.389868459946236,20.828858592984215
-19.743426424955032,1200,-11.172427426528953,11.172427426528953,20.933299638584153
-9.743426424955032,1202,2.2620980765296483,2.2620980765296483,21.035712625466765
22.256573575044968,1204,31.181293714836187,31.181293714836187,21.13571419743199
39.25657357504497,1207,51.93687468083071,51.93687468083071,21.23294396848707
33.25657357504497,1209,42.58080861269034,42.58080861269034,21.32706569608353
-15.743426424955032,1212,-2.438683180165482,2.438683180165482,21.417768301375812
-59.74342642495503,1214,-50.01451419568041,50.01451419568041,21.50476672493268
-81.74342642495503,1216,-67.92909368207586,67.92909368207586,21.587802609226333
-74.74342642495503,1219,-64.64717522938648,64.64717522938648,21.666644802532858
-51.74342642495503,1221,-37.587104691698734,37.587104691698734,21.741089682717767
-13.743426424955032,1224,-3.3510464944252973,3.3510464944252973,21.810961304794333
-6.743426424955032,1226,7.548342958652626,7.548342958652626,21.876111382990402
-17.743426424955032,1228,-7.146423115096809,7.146423115096809,21.936419124255224
-35.74342642495503,1231,-21.541785416017007,21.541785416017007,21.991790933438047
-28.743426424955032,1233,-18.041247951762788,18.041247951762788,22.04216001034544
-31.743426424955032,1236,-17.85236570272795,17.85236570272795,22.087485856905456
-20.743426424955032,1239,-10.029903680563947,10.029903680563947,22.127753710414016
-11.743426424955032,1241,1.6389323458760572,1.6389323458760572,22.162973917076325
-4.743426424955032,1244,5.9168654575103545,5.9168654575103545,22.19318125852551
0.2565735750449676,1246,12.953362970507557,12.953362970507557,22.2184342420434
-15.743426424955032,1249,-5.136735043530884,5.136735043530884,22.2388143624393
-23.743426424955032,1251,-11.901522276645085,11.901522276645085,22.254425340133434
-0.7434264249550324,1254,9.899655427696079,9.899655427696079,22.26539233641662
26.256573575044968,1256,37.08254439113698,37.08254439113698,22.271861143463678
42.25657357504497,1258,53.10250914280641,53.10250914280641,22.273997343705364
21.256573575044968,1261,30.953421722475667,30.953421722475667,22.271985431151624
-9.743426424955032,1263,1.4835376848701571,1.4835376848701571,22.266027886998675
-28.743426424955032,1266,-20.169832846262715,20.169832846262715,22.256344203478886
-43.74342642495503,1268,-32.03444115602338,32.03444115602338,22.243169852232274
-49.74342642495503,1270,-42.104932169842506,42.104932169842506,22.226755194920287
-28.743426424955032,1273,-16.59298491144314,16.59298491144314,22.207364334098706
38.25657357504497,1275,45.34010042006784,45.34010042006784,22.185273902630858
50.25657357504497,1278,62.6658566754038,62.6658566754038,22.16077179112923
23.256573575044968,1281,30.291832414227937,30.291832414227937,22.134155815187192
-14.743426424955032,1283,-2.331604747639993,2.331604747639993,22.105732327428758
5.256573575044968,1286,12.75484283743248,12.75484283743248,22.075814783465002
8.256573575044968,1288,20.44456525158461,20.44456525158461,22.04472227462337
-25.743426424955032,1291,-17.396166123894584,17.396166123894584,22.012778042291842
-36.74342642495503,1293,-24.886665119040376,24.886665119040376,21.98030798851594
-9.743426424955032,1295,-0.37577706762225915,0.37577706762225915,21.94763919615344
-12.743426424955032,1298,-1.1674081417845854,1.1674081417845854,21.915098470509825
-16.743426424955032,1300,-6.422510121333019,6.422510121333019,21.883010913001442
-11.743426424955032,1303,-0.26173389228367683,0.26173389228367683,21.85169853536837
4.256573575044968,1305,15.2697727288692,15.2697727288692,21.821478919845593
18.256573575044968,1307,29.88814170111697,29.88814170111697,21.792663926769794
-9.743426424955032,1310,1.6090130199319383,1.6090130199319383,21.765558447125088
-40.74342642495503,1312,-28.772500058071998,28.772500058071998,21.74045919427522
-59.74342642495503,1315,-48.373040483175586,48.373040483175586,21.717653526926338
-68.74342642495503,1317,-56.398468696239235,56.398468696239235,21.69741829419118
-61.74342642495503,1319,-50.554248178064626,50.554248178064626,21.68001869373736
-37.74342642495503,1323,-25.18010205249993,25.18010205249993,21.665707136109553
26.256573575044968,1325,37.20222017763425,37.20222017763425,21.65472211264308
40.25657357504497,1328,52.740710305056645,52.740710305056645,21.647287069938717
12.256573575044968,1330,22.975482470727904,22.975482470727904,21.643609299224014
-8.743426424955032,1332,3.324512094251012,3.324512094251012,21.64387885348174
-17.743426424955032,1335,-7.240263634516651,7.240263634516651,21.64826750904636
-15.743426424955032,1337,-4.366703642701878,4.366703642701878,21.656927791071507
-5.743426424955032,1340,4.486477009173164,4.486477009173164,21.669992082977455
-6.743426424955032,1342,3.7894917451255212,3.7894917451255212,21.687571838412342
-13.743426424955032,1344,-3.929240277564211,3.929240277564211,21.709756911080508
-32.74342642495503,1347,-23.077434355778195,23.077434355778195,21.736615013897573
-40.74342642495503,1349,-31.541019031483962,31.541019031483962,21.768191314936793
-12.743426424955032,1352,-3.8794370541649137,3.8794370541649137,21.80450817408201
2.2565735750449676,1354,10.664231337602553,10.664231337602553,21.845565021746566
-3.7434264249550324,1357,4.4017064068412575,4.4017064068412575,21.89133837947692
-5.743426424955032,1359,1.7727379250245523,1.7727379250245523,21.941782020950672
18.256573575044968,1361,25.722346545834313,25.722346545834313,21.996827269877514
40.25657357504497,1364,46.911403356146494,46.911403356146494,22.056383428448537
28.256573575044968,1367,35.020933798498575,35.020933798498575,22.120338327043317
30.256573575044968,1370,36.190879995331684,36.190879995331684,22.18855898417626
14.256573575044968,1372,20.271486061217754,20.271486061217754,22.260892366041848
-20.743426424955032,1374,-15.340912158462688,15.340912158462688,22.337166237229493
-28.743426424955032,1377,-23.48846389835061,23.48846389835061,22.417190096931943
-25.743426424955032,1379,-20.70781727945688,20.70781727945688,22.500756196976198
-26.743426424955032,1382,-22.167580161727074,22.167580161727074,22.587640638797623
-32.74342642495503,1384,-27.981897243664843,27.981897243664843,22.677604546411924
-33.74342642495503,1386,-29.651121572568186,29.651121572568186,22.770395312144412
-12.743426424955032,1389,-8.249132392928821,8.249132392928821,22.86574791178279
12.256573575044968,1391,16.165494493185243,16.165494493185243,22.963386286017784
12.256573575044968,1394,16.4248076155242,16.4248076155242,23.063024785239666
0.2565735750449676,1396,4.343882659464686,4.343882659464686,23.16436967444761
-8.743426424955032,1398,-4.973551722051349,4.973551722051349,23.26712069385852
-23.743426424955032,1401,-19.12610703381085,19.12610703381085,23.370972668795883
-28.743426424955032,1403,-25.382539722130186,25.382539722130186,23.475617159782256
-18.743426424955032,1406,-13.342167005071355,13.342167005071355,23.5807441407835
-24.743426424955032,1409,-21.66188016555241,21.66188016555241,23.686043690834108
-33.74342642495503,1411,-27.48079973746494,27.48079973746494,23.79120768227448
-1.7434264249550324,1414,1.380059719157229,1.380059719157229,23.89593144750218
43.25657357504497,1416,50.245593074656895,50.245593074656895,23.999915405132768
63.25657357504497,1419,66.9245975549872,66.9245975549872,24.10286662562392
39.25657357504497,1421,46.66084068591684,46.66084068591684,24.20450031613903
41.25657357504497,1423,46.06381718084307,46.06381718084307,24.304541205724128
27.256573575044968,1426,34.698952007929535,34.698952007929535,24.40272481554838
-14.743426424955032,1428,-8.260197116053341,8.260197116053341,24.498798604473542
-50.74342642495503,1431,-43.556720613878255,43.556720613878255,24.592522985853986
-54.74342642495503,1433,-46.26554943149172,46.26554943149172,24.683672215714118
-51.74342642495503,1435,-44.89144389203039,44.89144389203039,24.77203515506743
-37.74342642495503,1438,-27.28053931845226,27.28053931845226,24.857415911140535
-7.743426424955032,1440,-1.031561016003451,1.031561016003451,24.939634364805944
-2.7434264249550324,1443,9.352703077370728,9.352703077370728,25.018526594581072
8.256573575044968,1445,15.251243900785187,15.251243900785187,25.093945209795454
-9.743426424955032,1448,3.3882693725743707,3.3882693725743707,25.165759605678705
8.256573575044968,1451,16.044854136110814,16.044854136110814,25.23385615110552
16.256573575044968,1453,29.753120346709807,29.753120346709807,25.29813831648509
-3.7434264249550324,1456,5.255905084371801,5.255905084371801,25.358526745802774
-36.74342642495503,1458,-23.44436478771133,23.44436478771133,25.414959273724445
-43.74342642495503,1461,-33.360502976829764,33.360502976829764,25.467390886192025
-37.74342642495503,1463,-24.969520331169477,24.969520331169477,25.515793621011948
-9.743426424955032,1465,1.8776776758815812,1.8776776758815812,25.560156403495647
21.256573575044968,1468,33.451193587272115,33.451193587272115,25.600484811270153
32.25657357504497,1470,44.67355434442725,44.67355434442725,25.636800761705157
21.256573575044968,1473,33.04030099286035,33.04030099286035,25.669142114684902
-1.7434264249550324,1475,10.835575056276703,10.835575056276703,25.69756218299079
-22.743426424955032,1477,-11.100794457179965,11.100794457179965,25.72212914294858
-50.74342642495503,1480,-38.66881066409008,38.66881066409008,25.7429253389506
-60.74342642495503,1482,-49.02285566519838,49.02285566519838,25.760046475935994
-61.74342642495503,1485,-50.70725614057369,50.70725614057369,25.773600693625465
-56.74342642495503,1487,-44.908160236689284,44.908160236689284,25.783707516406373
-42.74342642495503,1489,-33.03054730678896,33.03054730678896,25.79049667458025
-27.743426424955032,1492,-16.001600405509436,16.001600405509436,25.794106796310704
30.256573575044968,1495,38.64017948928036,38.64017948928036,25.794683973877593
73.25657357504497,1498,84.48034897970228,84.48034897970228,25.792380211428068
61.25657357504497,1500,68.52170722143765,68.52170722143765,25.787351764077357
17.256573575044968,1502,27.42590269820711,27.42590269820711,25.77975738124159
-4.743426424955032,1505,1.7059848635987116,1.7059848635987116,25.769756472035496
-24.743426424955032,1507,-16.134784394087653,16.134784394087653,25.757507217101118
-20.743426424955032,1510,-14.857899316118942,14.857899316118942,25.74316465684398
-23.743426424955032,1512,-17.039595735172266,17.039595735172266,25.726878788461644
-20.743426424955032,1514,-15.332020403345522,15.332020403345522,25.70879270335346
-14.743426424955032,1517,-10.05248791727399,10.05248791727399,25.68904079409727
-19.743426424955032,1519,-14.91380799007121,14.91380799007121,25.667747057484913
5.256573575044968,1522,8.04763204539234,8.04763204539234,25.645023517444056
21.256573575044968,1524,25.252873074637897,25.252873074637897,25.620968788880173
22.256573575044968,1526,23.389603831545173,23.389603831545173,25.595666800508386
7.256573575044968,1529,10.133057067728267,10.133057067728267,25.56918569186385
7.256573575044968,1531,6.984874517848271,6.984874517848271,25.541576897217407
20.256573575044968,1534,21.79666093932427,21.79666093932427,25.512874427072354
15.256573575044968,1537,13.760056232119524,13.760056232119524,25.483094355829994
-15.743426424955032,1540,-15.63126620653231,15.63126620653231,25.452234521726023
-27.743426424955032,1542,-30.3808290194427,30.3808290194427,25.420274442423082
-17.743426424955032,1544,-19.03188731001345,19.03188731001345,25.38717544712587
-3.7434264249550324,1547,-7.49835766805229,7.49835766805229,25.352881024036247
-3.7434264249550324,1549,-6.337399829931277,6.337399829931277,25.317317380373318
-14.743426424955032,1552,-19.585600778571564,19.585600778571564,25.28039421066823
-24.743426424955032,1554,-28.544971330861358,28.544971330861358,25.242005667033236
-19.743426424955032,1556,-25.57103693839956,25.57103693839956,25.202031522485775
-15.743426424955032,1559,-20.696765846716364,20.696765846716364,25.160338515835445
-9.743426424955032,1561,-16.353768373522374,16.353768373522374,25.11678186487545
9.256573575044968,1564,3.1643832196696167,3.1643832196696167,25.071206933702538
43.25657357504497,1566,36.144691747826684,36.144691747826684,25.023451039249345
56.25657357504497,1568,49.04314087291145,49.04314087291145,24.97334538091926
51.25657357504497,1571,43.93607732550936,43.93607732550936,24.920717075752496
24.256573575044968,1573,16.018912828337477,16.018912828337477,24.865391280883298
10.256573575044968,1576,2.952808709489725,2.952808709489725,24.807193386055534
19.256573575044968,1579,10.23284347547237,10.23284347547237,24.745951261102018
6.256573575044968,1581,-0.9212695758105092,0.9212695758105092,24.681497544776263
-16.743426424955032,1584,-26.163864750801835,26.163864750801835,24.613671960723984
-35.74342642495503,1586,-42.79227145354582,42.79227145354582,24.542323643778357
-5.743426424955032,1589,-15.07174932244643,15.07174932244643,24.467313456469576
2.2565735750449676,1591,-4.705614946362985,4.705614946362985,24.388516273130872
-15.743426424955032,1593,-24.479326546062378,24.479326546062378,24.305823207831484
21.256573575044968,1596,14.369344695510845,14.369344695510845,24.219143761868054
75.25657357504497,1598,67.53888968714473,67.53888968714473,24.12840786566132
65.25657357504497,1601,58.52307824885879,58.52307824885879,24.033567788679246
15.256573575044968,1603,8.846033470051138,8.846033470051138,23.93459989074039
-31.743426424955032,1605,-38.12118261503639,38.12118261503639,23.83150618995633
-43.74342642495503,1608,-48.72765065352924,48.72765065352924,23.724315726352135
-41.74342642495503,1610,-47.4399067706012,47.4399067706012,23.613085704323378
-35.74342642495503,1613,-39.34603999175484,39.34603999175484,23.497902400626163
3.2565735750449676,1615,-1.3529249080782169,1.3529249080782169,23.3788818280506
42.25657357504497,1617,39.88117792865428,39.88117792865428,23.25617014879603
54.25657357504497,1620,51.13155323023962,51.13155323023962,23.129943835194638
27.256573575044968,1623,25.9364699321247,25.9364699321247,23.00040957800055
23.256573575044968,1626,21.89639245416268,21.89639245416268,22.867803944330767
27.256573575044968,1628,26.896260323916987,26.896260323916987,22.7323927894717
4.256573575044968,1631,4.739326394628545,4.739326394628545,22.594470429217473
-25.743426424955032,1633,-25.11233638476828,25.11233638476828,22.45435858130955
-51.74342642495503,1635,-49.563897384297015,49.563897384297015,22.312405085282748
-50.74342642495503,1638,-48.980570025683946,48.980570025683946,22.16898240990797
-32.74342642495503,1640,-29.18773974403284,29.18773974403284,22.024485957556177
-0.7434264249550324,1643,2.3231155320652057,2.3231155320652057,21.879332176342253
23.256573575044968,1645,27.789055347204776,27.789055347204776,21.733956493895047
26.256573575044968,1647,30.731000657051496,30.731000657051496,21.588811089691585
11.256573575044968,1650,16.387538286159838,16.387538286159838,21.444362524712258
6.256573575044968,1652,12.095865399707034,12.095865399707034,21.301089247696154
2.2565735750449676,1655,7.694270180718104,7.694270180718104,21.159478997327245
4.256573575044968,1657,11.242517607685137,11.242517607685137,21.02002611954631
26.256573575044968,1659,31.80425363828484,31.80425363828484,20.88322881843986
4.256573575044968,1662,12.029757749009914,12.029757749009914,20.749586357643025
-21.743426424955032,1665,-16.231295770462022,16.231295770462022,20.61959622744618
-45.74342642495503,1668,-37.60989010776706,37.60989010776706,20.4937512914842
-52.74342642495503,1670,-47.41972930707114,47.41972930707114,20.37253692623447
-42.74342642495503,1672,-34.67737148542832,34.67737148542832,20.256428166620957
-29.743426424955032,1675,-24.79659121113673,24.79659121113673,20.14588687221516
-1.7434264249550324,1677,5.852035115287231,5.852035115287231,20.041358931119277
12.256573575044968,1680,16.617110766748585,16.617110766748585,19.94327152193813
-2.7434264249550324,1682,3.9969741815452666,3.9969741815452666,19.852030456891445
8.256573575044968,1684,11.8291877321199,11.8291877321199,19.7680176300698
11.256573575044968,1687,16.774107096465933,16.774107096465933,19.691588594083992
6.256573575044968,1689,8.856301296540336,8.856301296540336,19.623070286550814
-1.7434264249550324,1692,2.2234516706441347,2.2234516706441347,19.56275892569722
9.256573575044968,1694,10.69848895458557,10.69848895458557,19.510918092216798
9.256573575044968,1696,11.422936283023354,11.422936283023354,19.467777012323722
2.2565735750449676,1699,2.3353416747946047,2.3353416747946047,19.433529054505723
-3.7434264249550324,1701,-3.523878804208347,3.523878804208347,19.40833044976698
12.256573575044968,1704,10.748524932675656,10.748524932675656,19.392299242311505
37.25657357504497,1707,35.479542173718954,35.479542173718954,19.38551447468121
18.256573575044968,1709,14.955302669984356,14.955302669984356,19.388015608460407
-5.743426424955032,1712,-9.507567413049337,9.507567413049337,19.39980217931701
-7.743426424955032,1714,-12.97377570083665,12.97377570083665,19.420833683861563
-12.743426424955032,1717,-18.465609236536288,18.465609236536288,19.45102969530596
-11.743426424955032,1719,-18.930992574643724,18.930992574643724,19.490270204391784
-2.7434264249550324,1721,-10.385012602339204,10.385012602339204,19.538396181128373
16.256573575044968,1724,7.189846085997807,7.189846085997807,19.595210351771644
13.256573575044968,1726,3.7709486633493468,3.7709486633493468,19.66047818440057
-9.743426424955032,1729,-20.538346244215376,20.538346244215376,19.73392907516892
-30.743426424955032,1731,-41.91693925627272,41.91693925627272,19.815257725528767
-27.743426424955032,1734,-40.08141999720586,40.08141999720586,19.904125698742277
0.2565735750449676,1736,-12.336269638737285,12.336269638737285,20.000163142808052
27.256573575044968,1738,13.575254752906734,13.575254752906734,20.10297066738509
34.25657357504497,1741,20.62481580374722,20.62481580374722,20.21212136410738
30.256573575044968,1743,15.456182925431163,15.456182925431163,20.327162961508208
28.256573575044968,1746,14.042298752777057,14.042298752777057,20.44762010653783
32.25657357504497,1748,16.620157756139655,16.620157756139655,20.5729967643611
23.256573575044968,1751,8.930859091159633,8.930859091159633,20.702778727300622
24.256573575044968,1754,8.170311365225299,8.170311365225299,20.8364362227272
42.25657357504497,1756,28.23633023569923,28.23633023569923,20.9734266083538
28.256573575044968,1759,12.2434077000029,12.2434077000029,21.113197141734116
-2.7434264249550324,1761,-16.14656534120772,16.14656534120772,21.255187809011314
-1.7434264249550324,1763,-17.02793705581334,17.02793705581334,21.39883419644088
-4.743426424955032,1766,-17.327700666644297,17.327700666644297,21.54357038702459
-7.743426424955032,1768,-21.57501896412007,21.57501896412007,21.688831863537427
2.2565735750449676,1771,-9.36290386596803,9.36290386596803,21.83405839814444
40.25657357504497,1773,28.554268684016954,28.554268684016954,21.97869690773196
30.256573575044968,1775,19.780110392873656,19.780110392873656,22.122204253076912
-2.7434264249550324,1778,-11.8128775848413,11.8128775848413,22.264049959064916
-21.743426424955032,1780,-30.798478614130172,30.798478614130172,22.403718832397203
-23.743426424955032,1783,-29.92259103656619,29.92259103656619,22.540713452628452
42.25657357504497,1785,34.99898649163502,34.99898649163502,22.674556511969584
90.25657357504497,1787,86.99151416472208,86.99151416472208,22.80479297934763
88.25657357504497,1790,83.19187212663094,83.19187212663094,22.930992065460295
45.25657357504497,1793,44.77366277292648,44.77366277292648,23.052748969057365
3.2565735750449676,1796,0.6917992632128822,0.6917992632128822,23.169686391205797
-31.743426424955032,1798,-29.64481391832711,29.64481391832711,23.281455813100898
-31.743426424955032,1800,-31.66865310712355,31.66865310712355,23.387738541426035
-13.743426424955032,1803,-9.281494565012324,9.281494565012324,23.488246530752292
-22.743426424955032,1805,-20.077249016089233,20.077249016089233,23.58272299468333
-44.74342642495503,1808,-38.148634988413306,38.148634988413306,23.670942817825193
-29.743426424955032,1810,-24.690887312098944,24.690887312098944,23.75271278043595
-20.743426424955032,1812,-12.277901588801555,12.277901588801555,23.827871607319242
-34.74342642495503,1815,-27.61429682927499,27.61429682927499,23.89628985249506
-44.74342642495503,1817,-34.71590100078597,34.71590100078597,23.957869631429958
-15.743426424955032,1820,-6.9058194880935435,6.9058194880935435,24.012544212798392
-9.743426424955032,1822,1.495860880188733,1.495860880188733,24.060277481706095
-36.74342642495503,1824,-26.593101383688033,26.593101383688033,24.101063286018697
-49.74342642495503,1827,-37.66180348243032,37.66180348243032,24.134924676585808
-22.743426424955032,1829,-11.683693264270032,11.683693264270032,24.16191305055215
-5.743426424955032,1832,6.81798847221533,6.81798847221533,24.182107205218752
0.2565735750449676,1835,11.834852178617865,11.834852178617865,24.1956123087551
18.256573575044968,1838,30.95849863910046,30.95849863910046,24.20255879316068
38.25657357504497,1840,50.00185731780921,50.00185731780921,24.203101173464084
35.25657357504497,1842,47.783944559497314,47.783944559497314,24.197416795424655
6.256573575044968,1845,17.888177520046657,17.888177520046657,24.1857045132471
-25.743426424955032,1847,-13.689857110325384,13.689857110325384,24.16818330001098
-35.74342642495503,1850,-24.411392201855403,24.411392201855403,24.145090796131115
-38.74342642495503,1852,-27.45069502842712,27.45069502842712,24.116681803570046
-42.74342642495503,1854,-31.800004550729597,31.800004550729597,24.083226734569365
-29.743426424955032,1857,-19.473165338901282,19.473165338901282,24.045010023621813
-9.743426424955032,1859,0.7918389232193399,0.7918389232193399,24.002328511228242
-2.7434264249550324,1862,6.302059806817596,6.302059806817596,23.955489808010938
0.2565735750449676,1864,10.37898379387303,10.37898379387303,23.904810647358662
21.256573575044968,1866,28.982974814350396,28.982974814350396,23.85061523316142
51.25657357504497,1869,60.90810919518386,60.90810919518386,23.793233586408398
58.25657357504497,1871,64.72295050041241,64.72295050041241,23.73299989168809
13.256573575044968,1874,22.269912433130457,22.269912433130457,23.670250843715404
-34.74342642495503,1876,-29.308927296218382,29.308927296218382,23.605323996044387
-40.74342642495503,1879,-32.65948348866891,32.65948348866891,23.538556118552158
-9.743426424955032,1882,-4.980578517585412,4.980578517585412,23.470281575132784
2.2565735750449676,1884,9.042219375545999,9.042219375545999,23.40083073653766
7.256573575044968,1887,11.743668287115733,11.743668287115733,23.330528444856586
-7.743426424955032,1889,-2.5991400642914657,2.5991400642914657,23.259692545879492
-13.743426424955032,1891,-9.235551718130168,9.235551718130168,23.188632503769565
-11.743426424955032,1894,-8.43105493225597,8.43105493225597,23.117648109534496
-7.743426424955032,1896,-3.1419705705735006,3.1419705705735006,23.0470282912252
-26.743426424955032,1899,-25.207686216552887,25.207686216552887,22.9770500299996
-43.74342642495503,1901,-39.25502803869087,39.25502803869087,22.907977382443665
16.256573575044968,1903,16.327056448607163,16.327056448607163,22.840060606285213
41.25657357504497,1906,45.19151473523016,45.19151473523016,22.77353538451432
22.256573575044968,1908,21.346758459871037,21.346758459871037,22.708622142361797
-13.743426424955032,1911,-10.9069789370065,10.9069789370065,22.645525452368044
-20.743426424955032,1913,-22.110024838856383,22.110024838856383,22.58443352417405
-10.743426424955032,1916,-9.499623008183896,9.499623008183896,22.52551777684437
-8.743426424955032,1918,-10.133820934564232,10.133820934564232,22.46893249183982
-25.743426424955032,1921,-26.40701732150287,26.40701732150287,22.414814544004088
-46.74342642495503,1924,-47.901187398802804,47.901187398802804,22.363283206431827
-51.74342642495503,1926,-54.373034546630784,54.373034546630784,22.314440023565314
-24.743426424955032,1929,-25.621755365018988,25.621755365018988,22.268368746388237
3.2565735750449676,1931,-1.121977555460056,1.121977555460056,22.225135325052108
14.256573575044968,1933,13.51400789227641,13.51400789227641,22.184787957384422
45.25657357504497,1936,39.58369537265034,39.58369537265034,22.14735719479032
36.25657357504497,1938,35.382872815178054,35.382872815178054,22.112856108479733
12.256573575044968,1941,5.893033344340438,5.893033344340438,22.081280518865654
-6.743426424955032,1943,-8.040122898238003,8.040122898238003,22.052609290780865
15.256573575044968,1945,8.841167267286721,8.841167267286721,22.02680469751016
29.256573575044968,1948,27.317909594037708,27.317909594037708,22.003812856728317
19.256573575044968,1950,13.357094935233095,13.357094935233095,21.98356424037594
1.2565735750449676,1953,-1.4009772875039435,1.4009772875039435,21.96597425854137
23.256573575044968,1955,18.293997153057354,18.293997153057354,21.95094391537201
51.25657357504497,1957,47.97413640860189,47.97413640860189,21.93836053319563
39.25657357504497,1960,35.46624817536178,35.46624817536178,21.928098539285266
1.2565735750449676,1963,-2.3953133432354505,2.3953133432354505,21.92002030848362
5.256573575044968,1966,2.684838101595709,2.684838101595709,21.913977054942414
30.256573575044968,1968,26.61026912301453,26.61026912301453,21.909809767222086
20.256573575044968,1970,18.79047355876629,18.79047355876629,21.907350181504174
-2.7434264249550324,1973,-5.95800866469148,5.95800866469148,21.90642178679772
-35.74342642495503,1975,-36.31794572386477,36.31794572386477,21.90684085431528
-44.74342642495503,1978,-47.13246219076003,47.13246219076003,21.908417481633254
-41.74342642495503,1980,-41.67078511177333,41.67078511177333,21.91095664139106
-28.743426424955032,1982,-30.02069681931408,30.02069681931408,21.914259224613705
2.2565735750449676,1985,2.7604648259630995,2.7604648259630995,21.918123070700407
19.256573575044968,1987,19.224098246557915,19.224098246557915,21.922343979245706
0.2565735750449676,1990,1.0369825927759173,1.0369825927759173,21.9267167016599
-27.743426424955032,1992,-26.563421799181,26.563421799181,21.93103591166751
-39.74342642495503,1994,-38.77047555540197,38.77047555540197,21.93509715300179
-29.743426424955032,1997,-27.536512699610974,27.536512699610974,21.938697760947022
-11.743426424955032,1999,-10.597832803413414,10.597832803413414,21.94163775314289
19.256573575044968,2002,22.182767476020278,22.182767476020278,21.9437206850106
41.25657357504497,2004,42.59440678825634,42.59440678825634,21.944754465950776
18.256573575044968,2008,21.525361965156854,21.525361965156854,21.944552133253335
9.256573575044968,2010,10.799813777242104,10.799813777242104,21.942932581215338
17.256573575044968,2012,20.493433321374305,20.493433321374305,21.939721243658745
36.25657357504497,2015,37.95654209317409,37.95654209317409,21.9347507288694
27.256573575044968,2017,30.155918477238735,30.155918477238735,21.927861406473717
-7.743426424955032,2020,-6.032877077673216,6.032877077673216,21.91890194594356
-30.743426424955032,2022,-28.386036791880247,28.386036791880247,21.907729806833927
-38.74342642495503,2024,-37.258355303698465,37.258355303698465,21.8942116816468
-16.743426424955032,2027,-15.043964106838239,15.043964106838239,21.87822389292892
9.256573575044968,2029,10.23587150570562,10.23587150570562,21.85965274668822
11.256573575044968,2032,12.232058901254602,12.232058901254602,21.838394844677374
21.256573575044968,2034,21.46208030250425,21.46208030250425,21.81435735836862
14.256573575044968,2036,14.455149683897615,14.455149683897615,21.787458266982238
-11.743426424955032,2039,-12.521720010256715,12.521720010256715,21.75762656065051
-26.743426424955032,2041,-27.385804938574502,27.385804938574502,21.724802408202095
-29.743426424955032,2044,-31.625092333032896,31.625092333032896,21.688937287585254
-29.743426424955032,2046,-31.316990189912843,31.316990189912843,21.64999407583416
-26.743426424955032,2049,-29.736960190836385,29.736960190836385,21.607947095030685
-18.743426424955032,2052,-21.369236247125084,21.369236247125084,21.562782111240505
-13.743426424955032,2054,-17.745048199530927,17.745048199530927,21.514496284790027
-8.743426424955032,2057,-12.558691040450555,12.558691040450555,21.463098071887945
21.256573575044968,2059,16.435032783504766,16.435032783504766,21.40860707876745
45.25657357504497,2061,40.13664783653295,40.13664783653295,21.351053869825805
48.25657357504497,2064,42.832594554745455,42.832594554745455,21.290479730832782
33.25657357504497,2066,26.78985386691121,26.78985386691121,21.226936387956293
9.256573575044968,2069,3.4123210872215965,3.4123210872215965,21.160485684053892
17.256573575044968,2071,9.516483085410071,9.516483085410071,21.091199215548567
49.25657357504497,2073,43.08781593862824,43.08781593862824,21.019157935195263
47.25657357504497,2076,38.44694781463633,38.44694781463633,20.944451726947644
3.2565735750449676,2078,-3.2480579193101757,3.2480579193101757,20.867178959048672
-11.743426424955032,2081,-21.310908641159756,21.310908641159756,20.78744602159062
-7.743426424955032,2083,-14.6854836362057,14.6854836362057,20.705366855694564
9.256573575044968,2085,-0.7078688839653022,0.7078688839653022,20.621062482373194
11.256573575044968,2088,3.7339700285427644,3.7339700285427644,20.53466053908261
4.256573575044968,2091,-5.773156547198615,5.773156547198615,20.446294830695262
-7.743426424955032,2094,-15.971042396015378,15.971042396015378,20.356104899313777
0.2565735750449676,2096,-9.609326721416902,9.609326721416902,20.264235614265623
20.256573575044968,2098,11.267373177958184,11.267373177958184,20.170836780277543
20.256573575044968,2101,10.63315877021385,10.63315877021385,20.07606275878664
-10.743426424955032,2103,-20.459356548954794,20.459356548954794,19.980072094790078
-33.74342642495503,2106,-43.208298564522856,43.208298564522856,19.883027139454523
-37.74342642495503,2108,-48.06827550173219,48.06827550173219,19.785093657015526
-14.743426424955032,2111,-24.26976969979194,24.26976969979194,19.686440403929197
37.25657357504497,2113,26.482797809906952,26.482797809906952,19.587238669482428
51.25657357504497,2115,41.373123875639585,41.373123875639585,19.487661770019596
43.25657357504497,2118,32.17353582703406,32.17353582703406,19.387884492608855
39.25657357504497,2120,28.71941213692658,28.71941213692658,19.288082487455785
34.25657357504497,2123,22.925986714274444,22.925986714274444,19.188431611588836
22.256573575044968,2125,10.825760411824056,10.825760411824056,19.089107229478383
-1.7434264249550324,2127,-13.362138148685817,13.362138148685817,18.990283479047893
-12.743426424955032,2130,-25.231539346671294,25.231539346671294,18.892132513426876
-0.7434264249550324,2132,-12.775002761160362,12.775002761160362,18.794823729512817
0.2565735750449676,2136,-13.393008550152466,13.393008550152466,18.69852299424561
-12.743426424955032,2138,-25.34711117668702,25.34711117668702,18.60339187900989
13.256573575044968,2140,-1.6362951875659795,1.6362951875659795,18.50958691209354
36.25657357504497,2143,22.9474001983762,22.9474001983762,18.417258858631065
40.25657357504497,2145,24.026564005154967,24.026564005154967,18.32655203685447
24.256573575044968,2148,10.178931151387335,10.178931151387335,18.237603678780548
-6.743426424955032,2150,-24.422835445749804,24.422835445749804,18.150543342856007
-24.743426424955032,2152,-39.57591750963666,39.57591750963666,18.065492385775144
2.2565735750449676,2155,-16.969200051564734,16.969200051564734,17.98256350080317
16.256573575044968,2157,0.7254967773240519,0.7254967773240519,17.901860330586974
20.256573575044968,2160,-0.5349837642177713,0.5349837642177713,17.823477163565588
23.256573575044968,2162,7.07050676566071,7.07050676566071,17.747498724039026
23.256573575044968,2164,1.0221022611118604,1.0221022611118604,17.67400006567117
10.256573575044968,2167,-6.602654555279181,6.602654555279181,17.60304657627482
31.256573575044968,2169,7.881478606987993,7.881478606987993,17.534694098698097
22.256573575044968,2172,4.628807435721605,4.628807435721605,17.468989169288538
4.256573575044968,2174,-19.79129455792876,19.79129455792876,17.405969372202765
-3.7434264249550324,2177,-22.28068633357712,22.28068633357712,17.34566380494393
26.256573575044968,2180,2.1024120074925925,2.1024120074925925,17.288093648141555
27.256573575044968,2182,7.692034288044018,7.692034288044018,17.233272830923138
34.25657357504497,2185,10.560959550934946,10.560959550934946,17.181208782124223
50.25657357504497,2187,29.650558650463825,29.650558650463825,17.131903256511894
45.25657357504497,2190,22.478315769028228,22.478315769028228,17.085353223820576
27.256573575044968,2192,5.763184010310174,5.763184010310174,17.041551807103136
24.256573575044968,2194,2.665909869729921,2.665909869729921,17.000489256297485
8.256573575044968,2197,-13.772430837044798,13.772430837044798,16.962153942899537
24.256573575044968,2199,3.8934639185973605,3.8934639185973605,16.9265333613768
64.25657357504497,2202,42.21987471300224,42.21987471300224,16.893615121843197
67.25657357504497,2204,47.94875654929997,47.94875654929997,16.863387916898187
55.25657357504497,2206,33.83025921751123,33.83025921751123,16.835842444542756
9.256573575044968,2209,-9.294305382345753,9.294305382345753,16.810972269883855
-7.743426424955032,2211,-27.99071034026091,27.99071034026091,16.78877461118859
8.256573575044968,2214,-9.835794866209959,9.835794866209959,16.769251039667676
33.25657357504497,2216,14.563917689285535,14.563917689285535,16.752408085570867
41.25657357504497,2219,23.432421987237362,23.432421987237362,16.73825774499225
10.256573575044968,2222,-6.787421608550069,6.787421608550069,16.72681788245592
-21.743426424955032,2224,-39.33732320824675,39.33732320824675,16.718112524453943
-35.74342642495503,2227,-51.33094850272109,51.33094850272109,16.712172039147703
-29.743426424955032,2229,-47.02068687160549,47.02068687160549,16.709033198031584
-6.743426424955032,2231,-21.283421665623134,21.283421665623134,16.708739117314643
26.256573575044968,2234,9.42778335225609,9.42778335225609,16.711339080587393
35.25657357504497,2236,21.251945160573015,21.251945160573015,16.716888249321027
34.25657357504497,2239,17.955626543516264,17.955626543516264,16.725447272227985
7.256573575044968,2241,-6.707369501686805,6.707369501686805,16.737081807249798
9.256573575044968,2243,-6.569539054911994,6.569539054911994,16.751861970977586
17.256573575044968,2246,2.9418738896510828,2.9418738896510828,16.769861730317732
8.256573575044968,2248,-7.303773485605974,7.303773485605974,16.791158250488632
8.256573575044968,2251,-6.680435489447305,6.680435489447305,16.81583121190904
-6.743426424955032,2253,-22.35455526892111,22.35455526892111,16.84396210632516
9.256573575044968,2255,-6.503007827425945,6.503007827425945,16.87563352006346
31.256573575044968,2258,15.259190632856958,15.259190632856958,16.91092841010748
15.256573575044968,2260,-1.5165322521787994,1.5165322521787994,16.94992937705129
-7.743426424955032,2264,-24.418087764894416,24.418087764894416,16.992717937734426
-14.743426424955032,2266,-32.728068149890795,32.728068149890795,17.03937379918308
25.256573575044968,2268,7.6549400849213605,7.6549400849213605,17.089974134366226
43.25657357504497,2271,23.895236919558805,23.895236919558805,17.14459285966377
24.256573575044968,2273,5.46997502647742,5.46997502647742,17.203299914122994
12.256573575044968,2276,-8.563494401540064,8.563494401540064,17.266160541166116
14.256573575044968,2278,-6.018169321317807,6.018169321317807,17.333234573668015
54.25657357504497,2281,31.982378507435747,31.982378507435747,17.404575722800743
75.25657357504497,2283,53.16414805461971,53.16414805461971,17.48023086987463
67.25657357504497,2285,43.55901251094616,43.55901251094616,17.560239359405873
52.25657357504497,2288,28.058063333488608,28.058063333488608,17.644632292088286
48.25657357504497,2290,23.10010410430725,23.10010410430725,17.73343181907807
35.25657357504497,2293,8.777508438356428,8.777508438356428,17.826650443469372
24.256573575044968,2295,-2.533481491807777,2.533481491807777,17.92429033937909
32.25657357504497,2297,3.469507921149969,3.469507921149969,18.026342702102614
23.256573575044968,2300,-5.495275767234046,5.495275767234046,18.132787143677355
12.256573575044968,2302,-18.74700402018219,18.74700402018219,18.243591147080142
11.256573575044968,2306,-19.88725287275225,19.88725287275225,18.358709589917478
31.256573575044968,2308,-1.8298770501642405,1.8298770501642405,18.478084345823916
31.256573575044968,2310,-2.7198263062088603,2.7198263062088603,18.601643969618763
9.256573575044968,2313,-25.824438790291758,25.824438790291758,18.72930347064176
19.256573575044968,2315,-17.913436669650366,17.913436669650366,18.860964177098165
38.25657357504497,2318,1.1651222469822287,1.1651222469822287,18.996513692438356
19.256573575044968,2320,-21.332593884543837,21.332593884543837,19.135825943104305
5.256573575044968,2322,-33.97475228681887,33.97475228681887,19.278761315675368
54.25657357504497,2325,10.168277079229483,10.168277079229483,19.425166880424143
71.25657357504497,2327,29.681928183542347,29.681928183542347,19.574876697554966
55.25657357504497,2330,7.706217043814786,7.706217043814786,19.72771220220964
32.25657357504497,2332,-11.869143406876603,11.869143406876603,19.883482664622022
20.256573575044968,2334,-30.646247130144914,30.646247130144914,20.041985722058836
10.256573575044968,2337,-36.56188014559562,36.56188014559562,20.20300797899764
33.25657357504497,2339,-20.85219085862657,20.85219085862657,20.36632567157848
45.25657357504497,2342,-4.282013510077553,4.282013510077553,20.53170539239337
70.25657357504497,2344,13.111685434158016,13.111685434158016,20.698904872458407
61.25657357504497,2348,9.099991161479235,9.099991161479235,20.86767381809644
44.25657357504497,2350,-15.718591778147315,15.718591778147315,21.03775480040967
43.25657357504497,2352,-11.307461901731251,11.307461901731251,21.208884193706574
70.25657357504497,2355,7.727996399337178,7.727996399337178,21.380793157167126
78.25657357504497,2357,21.557513697159088,21.557513697159088,21.553208651777805
67.25657357504497,2360,2.5575538580013326,2.5575538580013326,21.725854482351906
39.25657357504497,2362,-19.285260938794337,19.285260938794337,21.898452352245716
78.25657357504497,2364,11.8790313498335,11.8790313498335,22.070722916165906
118.25657357504497,2367,58.17417420536006,58.17417420536006,22.24238681428685
149.25657357504497,2369,81.7585383491706,81.7585383491706,22.41316566909534
102.25657357504497,2372,40.96570159078959,40.96570159078959,22.58278302595513
57.25657357504497,2374,-10.80345494385027,10.80345494385027,22.750965220665897
36.25657357504497,2376,-25.86414675846812,25.86414675846812,22.917442162488786
31.256573575044968,2379,-36.85458615551804,36.85458615551804,23.081948027364245
40.25657357504497,2381,-22.28546586326015,22.28546586326015,23.24422186085661
47.25657357504497,2384,-20.45568172573591,20.45568172573591,23.40400809290203
42.25657357504497,2386,-20.311180881718826,20.311180881718826,23.561056967654284
86.25657357504497,2388,19.331910193831078,19.331910193831078,23.71512489251681
115.25657357504497,2392,53.0123189124278,53.0123189124278,23.865974710874852
116.25657357504497,2394,50.42871523751454,50.42871523751454,24.013375903129372
71.25657357504497,2397,9.634225513597231,9.634225513597231,24.15710472107288
61.25657357504497,2399,-3.2780088434281254,3.2780088434281254,24.296944262235606
58.25657357504497,2401,-2.4909778023430516,2.4909778023430516,24.432684493267544
38.25657357504497,2404,-24.91567310352791,24.91567310352791,24.56412223308924
25.256573575044968,2406,-34.42828448285718,34.42828448285718,24.69106110603199
12.256573575044968,2409,-49.58090619886846,49.58090619886846,24.813311472873895
25.256573575044968,2411,-33.29547721694135,33.29547721694135,24.93069034541387
78.25657357504497,2413,17.693443460163845,17.693443460163845,25.04302128966992
92.25657357504497,2416,34.73443105552518,34.73443105552518,25.150134324192468
77.25657357504497,2418,17.9299482889936,17.9299482889936,25.251865822289872
50.25657357504497,2421,-6.529747237652696,6.529747237652696,25.348058428871155
42.25657357504497,2423,-15.832584064182509,15.832584064182509,25.438561003464553
59.25657357504497,2425,2.755210975259671,2.755210975259671,25.523228600651656
77.25657357504497,2428,20.416913367458026,20.416913367458026,25.6019224976347
82.25657357504497,2430,25.51400357667353,25.51400357667353,25.674510276060765
69.25657357504497,2434,13.625997736783152,13.625997736783152,25.74086596209145
34.25657357504497,2436,-23.21414161772463,23.21414161772463,25.800870225755492
16.256573575044968,2439,-38.34032148187445,38.34032148187445,25.85441063831838
27.256573575044968,2441,-31.269041526460754,31.269041526460754,25.90138198480438
29.256573575044968,2443,-24.685932257295768,24.685932257295768,25.941686627904893
24.256573575044968,2446,-35.40556247669965,35.40556247669965,25.975234919431728
24.256573575044968,2448,-29.628073980538925,29.628073980538925,26.0019456561663
75.25657357504497,2451,14.630146303135836,14.630146303135836,26.0217465780183
81.25657357504497,2453,26.683720205167816,26.683720205167816,26.034574907423906
80.25657357504497,2455,19.01360654699475,19.01360654699475,26.040377929598385
72.25657357504497,2458,16.23669983516468,16.23669983516468,26.03911361336865
52.25657357504497,2460,-9.21700355405755,9.21700355405755,26.030751271749455
36.25657357504497,2463,-21.81905782250565,21.81905782250565,26.015272260262986
65.25657357504497,2465,3.8269407359602177,3.8269407359602177,25.992670709278162
76.25657357504497,2467,15.80828227801856,15.80828227801856,25.962954284367093
58.25657357504497,2470,-3.084830504765923,3.084830504765923,25.926144965927968
25.256573575044968,2472,-37.50884180024856,37.50884180024856,25.882279836220366
58.25657357504497,2476,-3.2314691826604296,3.2314691826604296,25.83141185864762
141.25657357504497,2478,76.58497370307197,76.58497370307197,25.773610630983782
139.25657357504497,2480,77.16042646839739,77.16042646839739,25.708963091995454
109.25657357504497,2483,43.315778006264345,43.315778006264345,25.637574160580634
72.25657357504497,2485,9.012443732347698,9.012443732347698,25.55956728915074
34.25657357504497,2488,-32.29594598739726,32.29594598739726,25.475084918380546
15.256573575044968,2490,-49.56833489780423,49.56833489780423,25.38428882662482
64.25657357504497,2492,-2.433061716009318,2.433061716009318,25.287360371873937
112.25657357504497,2495,45.6681492262816,45.6681492262816,25.184500626549422
98.25657357504497,2497,31.596826942589423,31.596826942589423,25.07593040676579
59.25657357504497,2500,-8.98540354521393,8.98540354521393,24.961890198763943
24.256573575044968,2502,-42.520363434686374,42.520363434686374,24.842639986220867
37.25657357504497,2505,-32.30675735910501,32.30675735910501,24.71845898303066
61.25657357504497,2507,-5.997701992242115,5.997701992242115,24.58964527691919
80.25657357504497,2509,9.778968560302923,9.778968560302923,24.45651538992114
66.25657357504497,2512,-1.8934684271291262,1.8934684271291262,24.31940376215835
33.25657357504497,2514,-37.81272695365207,37.81272695365207,24.178662164909515
23.256573575044968,2518,-46.123578664544254,46.123578664544254,24.03465904722878
61.25657357504497,2520,-10.278025998964896,10.278025998964896,23.88777881804753
96.25657357504497,2522,25.477034095168126,25.477034095168126,23.738421064210772
125.25657357504497,2525,53.157760833163636,53.157760833163636,23.586999704942777
121.25657357504497,2527,49.07052854209191,49.07052854209191,23.43394208427815
80.25657357504497,2530,7.331031211812205,7.331031211812205,23.279688004503612
71.25657357504497,2532,-2.2626205401437396,2.2626205401437396,23.124688705834515
65.25657357504497,2534,-8.79308952250024,8.79308952250024,22.96940580019925
68.25657357504497,2537,-6.559488162029254,6.559488162029254,22.814310168722283
53.25657357504497,2539,-22.117281929391837,22.117281929391837,22.659880831975062
42.25657357504497,2542,-33.93567096412031,33.93567096412031,22.506603799553133
91.25657357504497,2544,14.51568623347385,14.51568623347385,22.354970902479646
93.25657357504497,2546,15.5111003619985,15.5111003619985,22.205478609654705
60.25657357504497,2549,-17.776621175170053,17.776621175170053,22.05862682846121
36.25657357504497,2551,-43.216684032080295,43.216684032080295,21.91491768920114
52.25657357504497,2554,-26.966939434324203,26.966939434324203,21.774854312667575
101.25657357504497,2556,19.99090297769437,19.99090297769437,21.638939559956626
88.25657357504497,2558,7.9087122162305405,7.9087122162305405,21.507674764106792
59.25657357504497,2562,-23.7068967808418,23.7068967808418,21.381558444248157
43.25657357504497,2564,-38.187048282640255,38.187048282640255,21.26108500383569
74.25657357504497,2567,-10.164470944174152,10.164470944174152,21.146743414692075
115.25657357504497,2569,32.74500257308967,32.74500257308967,21.039015888390804
96.25657357504497,2571,10.724089471374375,10.724089471374375,20.938376536645013
68.25657357504497,2574,-15.259817777030452,15.259817777030452,20.84529002289244
90.25657357504497,2576,4.025300135288678,4.025300135288678,20.760210207687283
123.25657357504497,2579,38.85896673095001,38.85896673095001,20.683578790356844
137.25657357504497,2581,50.76316730241792,50.76316730241792,20.615823948586346
105.25657357504497,2584,20.186443817770677,20.186443817770677,20.55735897674521
83.25657357504497,2586,-3.089896150925787,3.089896150925787,20.508580923914636
79.25657357504497,2588,-6.170452357904754,6.170452357904754,20.46986923412979
98.25657357504497,2591,12.394351495658137,12.394351495658137,20.44158439322763
112.25657357504497,2593,26.891617409368838,26.891617409368838,20.424066587260292
79.25657357504497,2596,-5.864784803627204,5.864784803627204,20.417634376238826
58.25657357504497,2598,-26.571859890615713,26.571859890615713,20.42258338496746
97.25657357504497,2600,13.08797585102129,13.08797585102129,20.43918501098928
145.25657357504497,2604,61.41183770966816,61.41183770966816,20.467685148523977
126.25657357504497,2606,43.26756409050024,43.26756409050024,20.50830292677887
78.25657357504497,2609,-4.2670369347980674,4.2670369347980674,20.561229461602977
46.25657357504497,2611,-35.26590576808661,35.26590576808661,20.626626621623203
35.25657357504497,2613,-45.76020908708607,45.76020908708607,20.704625813309814
41.25657357504497,2616,-38.45465310960355,38.45465310960355,20.79532679268174
48.25657357504497,2618,-31.19711334130438,31.19711334130438,20.8987965141218
65.25657357504497,2621,-12.299108063869095,12.299108063869095,21.0150680296651
81.25657357504497,2623,3.3702982601228584,3.3702982601228584,21.14413945548218
87.25657357504497,2625,12.111989730233304,12.111989730233304,21.285973025249593
79.25657357504497,2628,2.982071793265389,2.982071793265389,21.4404942514653
71.25657357504497,2630,-1.3815727334828347,1.3815727334828347,21.60759121505852
86.25657357504497,2633,11.735583909652465,11.735583909652465,21.78711400128432
71.25657357504497,2635,1.044888180773837,1.044888180773837,21.97887429657972
65.25657357504497,2637,-7.276928694075245,7.276928694075245,22.182645157291358
40.25657357504497,2640,-27.735926067989475,27.735926067989475,22.39816095726497
10.256573575044968,2642,-60.0213672873744,60.0213672873744,22.625117517525435
29.256573575044968,2646,-36.76680224905075,36.76680224905075,22.863172418304412
68.25657357504497,2648,0.45605493787237705,0.45605493787237705,23.111945492490296
80.25657357504497,2650,15.998838680169637,15.998838680169637,23.371019500666442
98.25657357504497,2653,33.02973315321195,33.02973315321195,23.63994099020241
83.25657357504497,2655,20.682514501772687,20.682514501772687,23.918221342455002
70.25657357504497,2658,7.512945443571153,7.512945443571153,24.205338012207452
62.25657357504497,2660,1.4426850955395332,1.4426850955395332,24.500735962702095
62.25657357504497,2662,1.7059255243080274,1.7059255243080274,24.803829298577956
75.25657357504497,2665,16.404807482403335,16.404807482403335,25.114003097266174
61.25657357504497,2667,2.4693038977821797,2.4693038977821797,25.430615436352856
55.25657357504497,2670,-1.4155642214069442,1.4155642214069442,25.752999610311818
70.25657357504497,2672,12.782485792897713,12.782485792897713,26.08046652550928
73.25657357504497,2675,18.85153226520429,18.85153226520429,26.4123072578476
76.25657357504497,2677,19.745697333953284,19.745697333953284,26.747795752900494
95.25657357504497,2679,42.96174372579593,42.96174372579593,27.086191644170242
111.25657357504497,2682,55.52176268859442,55.52176268859442,27.42674316177361
75.25657357504497,2684,24.638953958673717,24.638953958673717,27.768690102080573
62.25657357504497,2688,7.248922650296272,7.248922650296272,28.11126682895003
30.256573575044968,2690,-19.331974220857294,19.331974220857294,28.453705278811157
-6.743426424955032,2692,-61.030007329509345,61.030007329509345,28.795237943537717
-15.743426424955032,2695,-65.04664225441519,65.04664225441519,29.135100805638555
45.25657357504497,2697,-8.386852944353587,8.386852944353587,29.47253620022
101.25657357504497,2700,51.52194788039323,51.52194788039323,29.806795579136605
108.25657357504497,2702,55.026150628822855,55.026150628822855,30.137142155394976
88.25657357504497,2704,37.48468887138981,37.48468887138981,30.462853409230874
71.25657357504497,2707,18.03753670335093,18.03753670335093,30.783223440419274
32.25657357504497,2709,-20.014532094740055,20.014532094740055,31.09756515429859
-0.7434264249550324,2712,-54.48491439873237,54.48491439873237,31.405212271519243
-7.743426424955032,2714,-61.839192484369065,61.839192484369065,31.705521153002405
-8.743426424955032,2716,-63.59561988352911,63.59561988352911,31.997872432212038
3.2565735750449676,2719,-52.880459140704694,52.880459140704694,32.281672448115756
17.256573575044968,2721,-39.259212727463805,39.259212727463805,32.556354475504385
18.256573575044968,2724,-40.05483917740622,40.05483917740622,32.821379754480915
26.256573575044968,2726,-32.36544988431561,32.36544988431561,33.07623832648781
48.25657357504497,2728,-12.28515034376916,12.28515034376916,33.32044968878906
82.25657357504497,2732,21.2415203585304,21.2415203585304,33.5535632821546
114.25657357504497,2734,51.51715916711911,51.51715916711911,33.77515882747655
129.25657357504497,2737,65.73911708698614,65.73911708698614,33.98484652646674
126.25657357504497,2739,61.45388227017848,61.45388227017848,34.18226714049362
95.25657357504497,2741,29.31521288820703,29.31521288820703,34.36709196171279
64.25657357504497,2744,-2.371126173253021,2.371126173253021,34.53902269296086
50.25657357504497,2746,-17.837809647584194,17.837809647584194,34.69779125651133
39.25657357504497,2749,-28.863729864221504,28.863729864221504,34.84315955439763
55.25657357504497,2751,-14.53303892220405,14.53303892220405,34.97491920286656
84.25657357504497,2753,15.054637767238432,15.054637767238432,35.092891260866594
78.25657357504497,2756,7.39662321690051,7.39662321690051,35.196925968700356
56.25657357504497,2758,-13.553952859533151,13.553952859533151,35.28690250894951
48.25657357504497,2761,-22.91848453866983,22.91848453866983,35.3627287974164
39.25657357504497,2763,-30.639388957861524,30.639388957861524,35.4243413069257
69.25657357504497,2766,-1.4037355349484315,1.4037355349484315,35.47170492174641
113.25657357504497,2768,43.84285016376696,43.84285016376696,35.50481281572912
129.25657357504497,2770,59.948332514114504,59.948332514114504,35.52368634327873
126.25657357504497,2774,57.92825113048768,57.92825113048768,35.52837492910593
111.25657357504497,2776,44.08350374951225,44.08350374951225,35.518955940927185
79.25657357504497,2779,12.628938071657982,12.628938071657982,35.49553452972184
29.256573575044968,2781,-35.09885780262577,35.09885780262577,35.45824342451691
-4.743426424955032,2783,-69.07864666996652,69.07864666996652,35.40724267129802
16.256573575044968,2786,-44.733364953757274,44.733364953757274,35.342719307127645
91.25657357504497,2788,29.74457646535634,29.74457646535634,35.264886961219815
124.25657357504497,2791,67.01735135018261,67.01735135018261,35.17398537593252
87.25657357504497,2793,29.008723989149487,29.008723989149487,35.070279842929246
33.25657357504497,2795,-20.035420017735,20.035420017735,34.95406055249895
34.25657357504497,2798,-20.3916083811315,20.3916083811315,34.825641856436434
74.25657357504497,2800,24.898021191293058,24.898021191293058,34.685361446378174
102.25657357504497,2803,51.43118322225399,51.43118322225399,34.53357944950033
68.25657357504497,2805,22.60318232929186,22.60318232929186,34.37067744207196
5.256573575044968,2807,-41.64902516234481,41.64902516234481,34.197057379522356
-30.743426424955032,2810,-73.10298222962953,73.10298222962953,34.01314044052815
-14.743426424955032,2812,-57.79452763394008,57.79452763394008,33.81936578261756
25.256573575044968,2816,-14.32651465021913,14.32651465021913,33.616189208123714
93.25657357504497,2818,53.77336398334071,53.77336398334071,33.40408174214359
93.25657357504497,2820,55.93390416197078,55.93390416197078,33.18352812790562
56.25657357504497,2823,19.781628227831014,19.781628227831014,32.95502524842853
28.256573575044968,2825,-7.2314921661439024,7.2314921661439024,32.719080486000195
3.2565735750449676,2828,-31.031838744094994,31.031838744094994,32.476210032943214
-8.743426424955032,2830,-42.719488783501234,42.719488783501234,32.22693716805813
-22.743426424955032,2832,-55.81795055432252,55.81795055432252,31.971790512594804
-5.743426424955032,2835,-38.504801267315315,38.504801267315315,31.711302278336564
-0.7434264249550324,2837,-33.540026658953735,33.540026658953735,31.446006520017
1.2565735750449676,2840,-30.680458257220035,30.680458257220035,31.17643740562067
14.256573575044968,2842,-18.977315033595147,18.977315033595147,30.90312752042332
28.256573575044968,2844,-3.414098477776374,3.414098477776374,30.626606222576218
68.25657357504497,2847,34.18727986533769,34.18727986533769,30.347398068706678
68.25657357504497,2849,36.15367700950386,36.15367700950386,30.06602132713245
53.25657357504497,2852,18.247378987056578,18.247378987056578,29.78298659428527
39.25657357504497,2854,6.002905562561098,6.002905562561098,29.498795527756993
36.25657357504497,2857,0.38892621223289225,0.38892621223289225,29.213939707678968
20.256573575044968,2860,-14.733678831936919,14.733678831936919,28.928899636465882
13.256573575044968,2862,-23.325336256445183,23.325336256445183,28.644143884262537
25.256573575044968,2865,-11.806850092351809,11.806850092351809,28.3601283834482
33.25657357504497,2867,-3.916174957676296,3.916174957676296,28.077295871077624
56.25657357504497,2870,17.07586693653172,17.07586693653172,27.796075474030506
66.25657357504497,2872,28.568022787744745,28.568022787744745,27.516882427966976
80.25657357504497,2874,39.183566728832915,39.183566728832915,27.240117917627813
87.25657357504497,2877,49.085080955797864,49.085080955797864,26.96616902281875
74.25657357504497,2879,31.730932250071966,31.730932250071966,26.695408752469376
34.25657357504497,2882,-4.400308975863197,4.400308975863197,26.428196149124478
5.256573575044968,2884,-38.1234296627209,38.1234296627209,26.164876447747968
40.25657357504497,2886,1.0743332480694399,1.0743332480694399,25.90578127450115
106.25657357504497,2889,62.71921503925951,62.71921503925951,25.651228871978077
107.25657357504497,2891,67.4820812901745,67.4820812901745,25.401524337160872
88.25657357504497,2894,45.27100370213791,45.27100370213791,25.15695985829866
47.25657357504497,2896,6.84481672006925,6.84481672006925,24.9178149386013
17.256573575044968,2898,-24.576389541787368,24.576389541787368,24.68435659858047
12.256573575044968,2902,-28.734461777715474,28.734461777715474,24.456839553649914
22.256573575044968,2904,-18.056610437484455,18.056610437484455,24.235506367048608
23.256573575044968,2907,-18.077448796426438,18.077448796426438,24.020587579453867
8.256573575044968,2909,-30.485944518513694,30.485944518513694,23.812301816596758
-8.743426424955032,2911,-49.98059458414114,49.98059458414114,23.610855875771637
5.256573575044968,2914,-32.17997648612734,32.17997648612734,23.41644479189682
48.25657357504497,2916,7.7032926444231204,7.7032926444231204,23.229251884264315
56.25657357504497,2919,19.64964418463738,19.64964418463738,23.04944878662911
55.25657357504497,2921,15.978368709742615,15.978368709742615,22.877195465219643
18.256573575044968,2923,-18.019174430459753,18.019174430459753,22.712640230391692
17.256573575044968,2926,-20.340855260241526,20.340855260241526,22.555919747425552
30.256573575044968,2928,-6.001403121180902,6.001403121180902,22.40715905082835
28.256573575044968,2931,-7.592041104410297,7.592041104410297,22.266471565093127
6.256573575044968,2933,-29.98286943581245,29.98286943581245,22.133959133326464
-26.743426424955032,2936,-61.14358737701342,61.14358737701342,22.009712053366705
15.256573575044968,2938,-20.662625022394195,20.662625022394195,21.89380911934722
60.25657357504497,2940,26.751789773052394,26.751789773052394,21.786317666162766
57.25657357504497,2944,22.116487284796342,22.116487284796342,21.68729361566971
35.25657357504497,2946,2.0506423507140017,2.0506423507140017,21.59678152600875
47.25657357504497,2949,13.314265057233758,13.314265057233758,21.51481464764277
55.25657357504497,2951,21.91897342168919,21.91897342168919,21.441414990496003
43.25657357504497,2953,10.730487452529552,10.730487452529552,21.37659340588023
41.25657357504497,2956,7.650734930915135,7.650734930915135,21.320349685256506
34.25657357504497,2958,3.1044346470668454,3.1044346470668454,21.272672675962433
19.256573575044968,2961,-14.45369090986212,14.45369090986212,21.233540412040835
6.256573575044968,2963,-23.770792535516904,23.770792535516904,21.202920255994258
58.25657357504497,2965,24.802619275439906,24.802619275439906,21.180769044618252
89.25657357504497,2968,60.03118956031159,60.03118956031159,21.167033229612255
89.25657357504497,2970,56.45994623378843,56.45994623378843,21.161649002365323
64.25657357504497,2973,35.581223703473945,35.581223703473945,21.16454239303633
30.256573575044968,2975,-1.5765916403042972,1.5765916403042972,21.175629337196217
14.256573575044968,2977,-13.959477727988649,13.959477727988649,21.194815708188933
8.256573575044968,2980,-22.46519271446847,22.46519271446847,21.221997318090764
7.256573575044968,2982,-20.41709538930674,20.41709538930674,21.257059892825207
42.25657357504497,2985,12.645703094557302,12.645703094557302,21.299879027326124
50.25657357504497,2988,23.337263190955206,23.337263190955206,21.3503201257853
14.256573575044968,2990,-14.338371761267853,14.338371761267853,21.40823833107231
-19.743426424955032,2993,-45.638037816699736,45.638037816699736,21.47347844665774
-12.743426424955032,2995,-40.44120386567914,40.44120386567914,21.545874853828458
-0.7434264249550324,2998,-25.35815133431733,25.35815133431733,21.625251427049673
14.256573575044968,3000,-12.617721654128461,12.617721654128461,21.71142145153813
16.256573575044968,3002,-6.90002073787654,6.90002073787654,21.804187549352427
10.256573575044968,3005,-15.769303528486365,15.769303528486365,21.903341622508098
-0.7434264249550324,3007,-22.380641684609806,22.380641684609806,22.008664822544254
12.256573575044968,3010,-12.76940229744747,12.76940229744747,22.119927555278988
35.25657357504497,3012,15.072638688093763,15.072638688093763,22.23688952788496
53.25657357504497,3015,29.50153419805197,29.50153419805197,22.359299843741326
39.25657357504497,3017,20.358181820374178,20.358181820374178,22.48689714911675
49.25657357504497,3019,27.11719570437353,27.11719570437353,22.619409834646515
42.25657357504497,3022,24.43277852965791,24.43277852965791,22.75655629390025
25.256573575044968,3024,5.07768872828099,5.07768872828099,22.89804524118078
26.256573575044968,3027,9.325151315450768,9.325151315450768,23.04357609080735
43.25657357504497,3030,25.30658727372473,25.30658727372473,23.192839399961528
45.25657357504497,3032,29.124954985991092,29.124954985991092,23.345517376223167
35.25657357504497,3035,19.66959014888588,19.66959014888588,23.501284449302283
11.256573575044968,3037,-4.04232400415694,4.04232400415694,23.659807904905513
-17.743426424955032,3040,-30.99716175753924,30.99716175753924,23.82074857769142
-26.743426424955032,3042,-41.04512053017736,41.04512053017736,23.9837615996109
-26.743426424955032,3044,-37.85459321918251,37.85459321918251,24.148497199205845
-16.743426424955032,3047,-29.7779890334021,29.7779890334021,24.31460154703163
6.256573575044968,3049,-3.0258440536057787,3.0258440536057787,24.481717643041232
11.256573575044968,3052,-0.1945161104780535,0.1945161104780535,24.649486243430083
-5.743426424955032,3054,-13.562662453006265,13.562662453006265,24.817546825823282
38.25657357504497,3056,28.664916541993602,28.664916541993602,24.985538591394914
53.25657357504497,3059,46.57532235688548,46.57532235688548,25.153101500318638
30.256573575044968,3061,22.668748516326055,22.668748516326055,25.31987733410216
15.256573575044968,3064,9.505661858057653,9.505661858057653,25.485510776520275
-10.743426424955032,3066,-16.36746334848884,16.36746334848884,25.64965050463711
-33.74342642495503,3068,-38.63316282869189,38.63316282869189,25.811950281899264
-29.743426424955032,3072,-33.61424290460785,33.61424290460785,25.972070045241534
-17.743426424955032,3074,-21.746937695705565,21.746937695705565,26.129676977430453
-13.743426424955032,3077,-16.173496713483875,16.173496713483875,26.284446555341
29.256573575044968,3079,26.177840555237584,26.177840555237584,26.436063565008872
61.25657357504497,3081,59.937371613164814,59.937371613164814,26.584223074648207
41.25657357504497,3084,39.08023800496633,39.08023800496633,26.728631356915628
8.256573575044968,3086,7.760934977346142,7.760934977346142,26.86900675203763
-31.743426424955032,3089,-33.13587121785015,33.13587121785015,27.00508046478225
-42.74342642495503,3091,-42.64399930381862,42.64399930381862,27.136597290378493
7.256573575044968,3094,6.440937617992844,6.440937617992844,27.263316266242033
54.25657357504497,3096,54.766025367267844,54.766025367267844,27.38501124723516
64.25657357504497,3098,63.75197260110919,63.75197260110919,27.501471402676533
29.256573575044968,3101,30.00987629058674,30.00987629058674,27.612501634190405
-16.743426424955032,3103,-17.22588164383792,17.22588164383792,27.717922915386833
-42.74342642495503,3106,-41.91715736779943,41.91715736779943,27.81757255744877
-44.74342642495503,3108,-45.47923570453178,45.47923570453178,27.911304408116223
-30.743426424955032,3110,-30.038810457138734,30.038810457138734,27.998988994186444
-8.743426424955032,3113,-9.962658056452927,9.962658056452927,28.08051361944984
-6.743426424955032,3116,-6.385894318893303,6.385894318893303,28.155782431558734
-12.743426424955032,3119,-14.612755181963143,14.612755181963143,28.224716472467872
-28.743426424955032,3121,-28.97714026328503,28.97714026328503,28.287253726807275
-30.743426424955032,3123,-33.3678166047854,33.3678166047854,28.343349180503136
2.2565735750449676,3126,1.1993857747886505,1.1993857747886505,28.392974899054416
44.25657357504497,3128,40.81497662955451,40.81497662955451,28.436120132331446
28.256573575044968,3131,26.19733562418967,26.19733562418967,28.47279145100325
1.2565735750449676,3133,-3.049734819256328,3.049734819256328,28.50301291836552
0.2565735750449676,3135,-2.8892055864434774,2.8892055864434774,28.526826300072756
5.256573575044968,3138,0.028576632836901483,0.028576632836901483,28.544291312758283
-9.743426424955032,3140,-13.943403093548998,13.943403093548998,28.55548591007846
-13.743426424955032,3143,-19.964553542488588,19.964553542488588,28.56050660078385
0.2565735750449676,3145,-4.855774989408728,4.855774989408728,28.55946878836804
37.25657357504497,3147,29.977580853180104,29.977580853180104,28.55250711670989
77.25657357504497,3150,71.44541460327912,71.44541460327912,28.539775801716072
77.25657357504497,3152,68.9030585244294,68.9030585244294,28.521448925781158
37.25657357504497,3155,30.97802905016629,30.97802905016629,28.497720670743803
-9.743426424955032,3158,-19.098393501720377,19.098393501720377,28.46880546685384
-51.74342642495503,3161,-58.28348531534052,58.28348531534052,28.434938039662033
-40.74342642495503,3163,-50.92120197289857,50.92120197289857,28.39637334169988
-6.743426424955032,3165,-13.374187541797781,13.374187541797781,28.353386359717597
11.256573575044968,3168,0.5179459661607959,0.5179459661607959,28.306271791209866
-14.743426424955032,3170,-21.303800032382657,21.303800032382657,28.255343586444766
22.256573575044968,3173,11.255863826689538,11.255863826689538,28.200934353501797
69.25657357504497,3175,62.953757111448965,62.953757111448965,28.143394622992123
54.25657357504497,3177,43.2910715106351,43.2910715106351,28.08309196676153
13.256573575044968,3180,7.438045526076337,7.438045526076337,28.02040996285476
1.2565735750449676,3182,-9.38176701866255,9.38176701866255,27.955746998773495
-26.743426424955032,3185,-31.832552615856073,31.832552615856073,27.889514906189223
-67.74342642495503,3187,-77.74257352980013,77.74257352980013,27.82213742109493
-83.74342642495503,3189,-87.87494911222508,87.87494911222508,27.754048463163457
-25.743426424955032,3192,-34.74727810053558,34.74727810053558,27.68569022840489
35.25657357504497,3194,32.27599399014935,32.27599399014935,27.61751109240835
89.25657357504497,3197,81.64469755832673,81.64469755832673,27.549963327828962
72.25657357504497,3200,70.59827307717285,70.59827307717285,27.48350064734127
29.256573575044968,3202,23.442978073094032,23.442978073094032,27.4185755903092
-10.743426424955032,3205,-10.900844291902995,10.900844291902995,27.355636778078928
-17.743426424955032,3207,-21.378207128078536,21.378207128078536,27.295126069404855
-13.743426424955032,3210,-12.194554029562909,12.194554029562909,27.237475652797738
-12.743426424955032,3212,-13.863154675214956,13.863154675214956,27.18310511493786
-17.743426424955032,3214,-14.258138903782008,14.258138903782008,27.13241852372372
1.2565735750449676,3217,2.9428064527175897,2.9428064527175897,27.085801562252442
16.256573575044968,3219,21.91817845185566,21.91817845185566,27.043618747042327
19.256573575044968,3222,23.99715022006245,23.99715022006245,27.006210760462118
-10.743426424955032,3224,-2.6697483426956032,2.6697483426956032,26.973891923834177
-38.74342642495503,3226,-30.745949249311202,30.745949249311202,26.946947834375724
-46.74342642495503,3229,-36.03459859746991,36.03459859746991,26.925633186285918
-31.743426424955032,3231,-20.340936177541955,20.340936177541955,26.910169793928745
-3.7434264249550324,3234,9.803977280570844,9.803977280570844,26.900744833329156
-3.7434264249550324,3236,11.147973037991854,11.147973037991854,26.897509317181058
-33.74342642495503,3238,-17.181850846503703,17.181850846503703,26.90057681776508
-35.74342642495503,3241,-17.35303014721014,17.35303014721014,26.910022450721772
-21.743426424955032,3244,-2.030862732992004,2.030862732992004,26.92588213019143
-3.7434264249550324,3247,18.077580011758066,18.077580011758066,26.948152102799757
0.2565735750449676,3249,23.196051555164843,23.196051555164843,26.976788764742082
-25.743426424955032,3252,-0.6268527848448437,0.6268527848448437,27.011708762892216
-16.743426424955032,3254,9.39681305884178,9.39681305884178,27.0527893775092
-7.743426424955032,3256,20.495885259988498,20.495885259988498,27.09986918080956
-19.743426424955032,3259,9.423213594116326,9.423213594116326,27.152748962260183
-8.743426424955032,3261,22.429627356139154,22.429627356139154,27.21119290779746
12.256573575044968,3264,44.10894129814781,44.10894129814781,27.27493001656048
8.256573575044968,3266,42.14506889755865,42.14506889755865,27.34365573567585
-8.743426424955032,3268,25.31695812046916,25.31695812046916,27.417033791728873
-11.743426424955032,3271,24.563703027309465,24.563703027309465,27.494698197229578
-17.743426424955032,3273,17.97638145695794,17.97638145695794,27.576255411410532
-47.74342642495503,3276,-9.45431159574246,9.45431159574246,27.661286636026798
-69.74342642495503,3278,-32.908384926056385,32.908384926056385,27.749350227326758
-91.74342642495503,3280,-52.09119347289252,52.09119347289252,27.83998420463925
-106.74342642495503,3283,-69.27681883163444,69.27681883163444,27.932708834690988
-93.74342642495503,3286,-53.52795675699682,53.52795675699682,28.02702927022424
-58.74342642495503,3289,-21.051797436379843,21.051797436379843,28.122438223158866
-25.743426424955032,3291,14.113095310721818,14.113095310721818,28.21841865668648
4.256573575044968,3293,41.81024429293744,41.81024429293744,28.314446485795386
-20.743426424955032,3296,17.82583766308963,17.82583766308963,28.409993279633902
-58.74342642495503,3298,-21.72339124549787,21.72339124549787,28.504528960819226
-74.74342642495503,3301,-38.248166578448064,38.248166578448064,28.597524496894547
-65.74342642495503,3303,-29.768080397928117,29.768080397928117,28.688454578659567
-58.74342642495503,3305,-24.841055904576333,24.841055904576333,28.776800279608633
-52.74342642495503,3308,-18.474914295495076,18.474914295495076,28.862051690443714
-51.74342642495503,3310,-20.635758959903427,20.635758959903427,28.94371052258391
-61.74342642495503,3313,-29.942969871031693,29.942969871031693,29.02129267438224
-26.743426424955032,3315,1.6287629240305002,1.6287629240305002,29.094330752957415
11.256573575044968,3317,39.87029287044585,39.87029287044585,29.162376543125628
41.25657357504497,3320,67.07266046898945,67.07266046898945,29.225003413158532
21.256573575044968,3322,46.18974405738466,46.18974405738466,29.2818086455326
-21.743426424955032,3325,1.6582406599315025,1.6582406599315025,29.33241568043215
-30.743426424955032,3328,-9.617843130179796,9.617843130179796,29.37647626120686
-17.743426424955032,3330,3.2531961965506717,3.2531961965506717,29.413672473331406
-19.743426424955032,3333,-2.151444758416085,2.151444758416085,29.44371866940849
-34.74342642495503,3335,-16.260822755529468,16.260822755529468,29.466363270908083
13.256573575044968,3338,27.901488903956306,27.901488903956306,29.481390433071486
38.25657357504497,3340,54.10687250595489,54.10687250595489,29.488621554247025
41.25657357504497,3343,53.686837448820725,53.686837448820725,29.487916606456928
36.25657357504497,3345,49.486851215976785,49.486851215976785,29.47917526156266
-9.743426424955032,3347,1.184950726569948,1.184950726569948,29.46233778772401
-58.74342642495503,3350,-47.894536721998904,47.894536721998904,29.437385693442476
-80.74342642495503,3352,-70.7253479700965,70.7253479700965,29.40434209972657
-86.74342642495503,3355,-77.79516325119957,77.79516325119957,29.36327182351528
-85.74342642495503,3357,-76.190564501264,76.190564501264,29.31428115800629
-57.74342642495503,3359,-50.02603805192504,50.02603805192504,29.25751733986687
1.2565735750449676,3362,10.671821220842656,10.671821220842656,29.193167700431943
49.25657357504497,3364,56.50759225998024,56.50759225998024,29.12145850665158
50.25657357504497,3367,59.80173048383981,59.80173048383981,29.04265350531734
53.25657357504497,3369,60.790224595181954,60.790224595181954,28.957052189606568
37.25657357504497,3372,47.20221795881797,47.20221795881797,28.86498781105155
-0.7434264249550324,3375,7.704198571176938,7.704198571176938,28.766825164439695
-13.743426424955032,3377,-3.0778942648697054,3.0778942648697054,28.662958178367465
5.256573575044968,3380,15.061693550469533,15.061693550469533,28.55380734874585
-11.743426424955032,3382,0.020514341105866585,0.020514341105866585,28.43981705454935
-46.74342642495503,3384,-35.34918584489577,35.34918584489577,28.321452793850455
-34.74342642495503,3387,-21.473046218305562,21.473046218305562,28.199198374687054
4.256573575044968,3389,17.281633423575343,17.281633423575343,28.07355309126915
1.2565735750449676,3392,16.40943211461189,16.40943211461189,27.945028912697435
-22.743426424955032,3394,-8.178532560586117,8.178532560586117,27.81414770899397
-34.74342642495503,3396,-17.441275317784648,17.441275317784648,27.681438537246127
-34.74342642495503,3399,-18.787386756263267,18.787386756263267,27.54743500832207
-36.74342642495503,3401,-17.207399399696737,17.207399399696737,27.412672751725047
-18.743426424955032,3404,-1.5305986359115984,1.5305986359115984,27.27768699301829
10.256573575044968,3406,31.88173111930825,31.88173111930825,27.1430102551987
14.256573575044968,3408,32.65236092953991,32.65236092953991,27.0091701924592
-20.743426424955032,3411,2.5969770058393924,2.5969770058393924,26.876687561974553
-21.743426424955032,3414,-2.1767376735102375,2.1767376735102375,26.74607433695179
-30.743426424955032,3417,-6.233053475013621,6.233053475013621,26.61783196222947
-39.74342642495503,3419,-19.00090835454492,19.00090835454492,26.49244975145619
-46.74342642495503,3421,-21.67884148545081,21.67884148545081,26.37040342156955
-35.74342642495503,3424,-13.869605767034567,13.869605767034567,26.25215375619603
-44.74342642495503,3426,-19.702543165283828,19.702543165283828,26.138145385701865
-64.74342642495503,3429,-41.885089751959605,41.885089751959605,26.028805668592554
-83.74342642495503,3431,-59.186139807709154,59.186139807709154,25.924543656815242
-81.74342642495503,3434,-58.16415003327083,58.16415003327083,25.825749126428914
-49.74342642495503,3436,-25.978292676654018,25.978292676654018,25.732791655794927
0.2565735750449676,3438,24.204681915914495,24.204681915914495,25.646019736414676
34.25657357504497,3441,57.06105772492651,57.06105772492651,25.5657599060793
29.256573575044968,3443,53.18898307644516,53.18898307644516,25.492315898524293
30.256573575044968,3446,52.03599120785185,52.03599120785185,25.425967807519964
12.256573575044968,3448,35.812512484801736,35.812512484801736,25.3669712670036
-18.743426424955032,3450,2.0186579746746993,2.0186579746746993,25.315556653405892
-20.743426424955032,3453,2.1273142195559984,2.1273142195559984,25.271928321337374
-12.743426424955032,3456,7.073899915871417,7.073899915871417,25.23626388761902
-20.743426424955032,3459,1.1786550110676135,1.1786550110676135,25.208713579711816
-43.74342642495503,3461,-24.724277502701845,24.724277502701845,25.18939966265445
-60.74342642495503,3463,-40.00471962088573,40.00471962088573,25.178415954745837
-36.74342642495503,3466,-18.309388279620592,18.309388279620592,25.175827438064594
-12.743426424955032,3468,6.615712756045408,6.615712756045408,25.181669966865933
4.256573575044968,3471,22.336084905656,22.336084905656,25.19595007536617
12.256573575044968,3473,30.12573485634536,30.12573485634536,25.218644885709708
36.25657357504497,3475,54.14975958281142,54.14975958281142,25.249702116033006
28.256573575044968,3478,44.66985522582978,44.66985522582978,25.289040187523145
-21.743426424955032,3480,-3.999947666845042,3.999947666845042,25.33654842927688
-46.74342642495503,3483,-31.581921924069427,31.581921924069427,25.392087381307373
-49.74342642495503,3485,-32.25966761971722,32.25966761971722,25.45548919852541
-29.743426424955032,3487,-15.496063486736581,15.496063486736581,25.52655816051406
-32.74342642495503,3490,-15.725305495334355,15.725305495334355,25.60507129275704
-20.743426424955032,3492,-7.025604926267826,7.025604926267826,25.69077910499967
0.2565735750449676,3495,16.594108610962586,16.594108610962586,25.783406451862746
11.256573575044968,3497,24.783088378564578,24.783088378564578,25.882653519450237
8.256573575044968,3500,23.766610071869756,23.766610071869756,25.98819693945808
-12.743426424955032,3503,0.8244550437275915,0.8244550437275915,26.09969102975247
-44.74342642495503,3505,-30.101347786603974,30.101347786603974,26.216769158140227
-41.74342642495503,3508,-28.0180678318753,28.0180678318753,26.33904522414872
-13.743426424955032,3510,0.09475810269586438,0.09475810269586438,26.46611525177457
-5.743426424955032,3513,8.16798496110066,8.16798496110066,26.597559084275325
-36.74342642495503,3515,-23.571424002653636,23.571424002653636,26.73294217015773
-66.74342642495503,3517,-52.65036800864422,52.65036800864422,26.871817427248534
-51.74342642495503,3520,-39.072576979646286,39.072576979646286,27.013727169117335
-9.743426424955032,3522,4.556989306198226,4.556989306198226,27.1582050761278
46.25657357504497,3525,58.574591178611946,58.574591178611946,27.304778193067293
42.25657357504497,3527,56.868071897054286,56.868071897054286,27.4529689364696
-3.7434264249550324,3529,8.336500278052979,8.336500278052979,27.602297096506874
-31.743426424955032,3532,-16.633920959414194,16.633920959414194,27.752281820401333
-25.743426424955032,3534,-13.78933673797277,13.78933673797277,27.90244356665611
-21.743426424955032,3537,-5.9146966543721575,5.9146966543721575,28.05230602109253
-44.74342642495503,3539,-32.73388436349576,32.73388436349576,28.201397965505183
-57.74342642495503,3542,-41.016988037314846,41.016988037314846,28.349255087684355
-49.74342642495503,3545,-37.3613494923067,37.3613494923067,28.49542171880974
-44.74342642495503,3547,-27.033712866931516,27.033712866931516,28.639452482223415
21.256573575044968,3550,34.470396561114015,34.470396561114015,28.780913837137568
51.25657357504497,3552,69.96094037753743,69.96094037753743,28.919385501722118
48.25657357504497,3554,62.8312396877339,62.8312396877339,29.05446174163174
-0.7434264249550324,3557,18.96835627887872,18.96835627887872,29.18575251239197
-45.74342642495503,3559,-29.318976129350002,29.318976129350002,29.312884447702668
-72.74342642495503,3562,-51.93614449374934,51.93614449374934,29.43550169033904
-71.74342642495503,3564,-53.10472593730094,53.10472593730094,29.553266566563458
-20.743426424955032,3566,1.344179022277916,1.344179022277916,29.665860107967447
24.256573575044968,3569,45.322216758192354,45.322216758192354,29.772982426962123
30.256573575044968,3571,53.87158118694627,53.87158118694627,29.87435295429955
44.25657357504497,3574,67.82383020478625,67.82383020478625,29.96971054885315
16.256573575044968,3576,41.65003498572554,41.65003498572554,30.05881349161041
-29.743426424955032,3578,-3.7139522278219808,3.7139522278219808,30.141439378506178
-28.743426424955032,3581,-1.3712954686262435,1.3712954686262435,30.217384930694585
-23.743426424955032,3584,4.615408008294777,4.615408008294777,30.28646574454764
-43.74342642495503,3587,-14.285491526807181,14.285491526807181,30.34851600480068
-74.74342642495503,3589,-44.26748132581679,44.26748132581679,30.403388181998675
-89.74342642495503,3591,-58.20853463013532,58.20853463013532,30.450952731024437
-48.74342642495503,3594,-16.43836445265152,16.43836445265152,30.49109780337519
-26.743426424955032,3596,6.741347278279106,6.741347278279106,30.523728983806507
-32.74342642495503,3599,1.0293056159172238,1.0293056159172238,30.548769061996953
-19.743426424955032,3601,15.447563480433859,15.447563480433859,30.566157850202078
-20.743426424955032,3604,14.08371122375408,14.08371122375408,30.57585205644777
-14.743426424955032,3606,21.784105542857525,21.784105542857525,30.577825219200967
-15.743426424955032,3608,19.714656471336635,19.714656471336635,30.572067704750847
-35.74342642495503,3611,1.620162432983955,1.620162432983955,30.558586764017086
-10.743426424955032,3613,24.94430671745065,24.94430671745065,30.537406641634057
4.256573575044968,3616,41.85477177883056,41.85477177883056,30.508568726664457
-21.743426424955032,3618,13.795793180179716,13.795793180179716,30.472131730901676
-69.74342642495503,3620,-32.54563542966844,32.54563542966844,30.428171877719738
-88.74342642495503,3623,-53.725493721464225,53.725493721464225,30.376783082342325
-85.74342642495503,3625,-49.537682514408345,49.537682514408345,30.318077103362018
-74.74342642495503,3629,-40.62200219826438,40.62200219826438,30.252183645346218
-65.74342642495503,3631,-31.020071599821243,31.020071599821243,30.17925039368649
-70.74342642495503,3633,-37.87913966147431,37.87913966147431,30.099442965466615
-77.74342642495503,3636,-44.860977667149726,44.860977667149726,30.01294476323685
-86.74342642495503,3638,-55.448684086848836,55.448684086848836,29.91995672130814
-80.74342642495503,3641,-49.913737734686244,49.913737734686244,29.82069693650333
-30.743426424955032,3643,-1.253964006994238,1.253964006994238,29.715400177907124
-3.7434264249550324,3645,24.982269103000178,24.982269103000178,29.604317273353637
5.256573575044968,3648,32.79237456319387,32.79237456319387,29.487714373385337
42.25657357504497,3650,68.99842390388321,68.99842390388321,29.365872094994227
60.25657357504497,3653,85.77904288963757,85.77904288963757,29.239084547628906
26.256573575044968,3655,51.29767370260574,51.29767370260574,29.107658244553893
-11.743426424955032,3657,11.800565955868148,11.800565955868148,28.971910905810553
-34.74342642495503,3660,-10.993425032521358,10.993425032521358,28.832170164979516
-38.74342642495503,3662,-17.034802780709096,17.034802780709096,28.6887721984247
-27.743426424955032,3665,-4.808555175611065,4.808555175611065,28.542060299764376
-30.743426424955032,3667,-10.602496192271506,10.602496192271506,28.39238342270583
-25.743426424955032,3670,-3.151848227740917,3.151848227740917,28.24009471292416
21.256573575044968,3673,40.227522786768866,40.227522786768866,28.085550045786867
21.256573575044968,3675,43.91329200943404,43.91329200943404,27.92910658243123
-12.743426424955032,3678,5.564918560317047,5.564918560317047,27.77112135287727
-23.743426424955032,3680,-0.7095806940668794,0.7095806940668794,27.611949872380507
13.256573575044968,3682,31.472150867675357,31.472150867675357,27.451944796094576
19.256573575044968,3685,42.874772200950225,42.874772200950225,27.29145461614426
-2.7434264249550324,3687,15.949790155732941,15.949790155732941,27.130822403479847
-54.74342642495503,3690,-30.430770481646096,30.430770481646096,26.970384594950794
-83.74342642495503,3692,-64.06532019885616,64.06532019885616,26.81046982500707
-57.74342642495503,3695,-32.70618802721388,32.70618802721388,26.651397801603768
2.2565735750449676,3697,23.30554245321636,23.30554245321636,26.493478227071304
2.2565735750449676,3699,27.99366971475279,27.99366971475279,26.337009766891754
-22.743426424955032,3702,-0.10901067557888133,0.10901067557888133,26.182279072037268
-49.74342642495503,3704,-23.354818094467724,23.354818094467724,26.029559862609638
-43.74342642495503,3707,-19.515265847747514,19.515265847747514,25.87911208100586
-39.74342642495503,3709,-12.750899422951635,12.750899422951635,25.731181121702
-50.74342642495503,3712,-25.121920172376658,25.121920172376658,25.585997142684928
-61.74342642495503,3715,-34.1954400041623,34.1954400041623,25.443774461339906
-32.74342642495503,3717,-6.094555462019857,6.094555462019857,25.304711035695195
19.256573575044968,3720,47.277065744177975,47.277065744177975,25.168988030536546
5.256573575044968,3722,32.48114176969542,32.48114176969542,25.036769467097045
-44.74342642495503,3724,-16.414789388085072,16.414789388085072,24.908201954803413
-61.74342642495503,3727,-34.396563707867564,34.396563707867564,24.78341450395006
-68.74342642495503,3729,-40.377724319224434,40.377724319224434,24.662518419096777
-51.74342642495503,3732,-24.677379016659973,24.677379016659973,24.545607274137417
-32.74342642495503,3734,-4.700894260806685,4.700894260806685,24.432756971181764
-5.743426424955032,3736,20.701592266008436,20.701592266008436,24.32402588661602
2.2565735750449676,3739,29.57261210462631,29.57261210462631,24.219455108576405
-21.743426424955032,3741,3.8007519971083195,3.8007519971083195,24.119068769988495
-34.74342642495503,3744,-8.557659235727925,8.557659235727925,24.02287448028199
-34.74342642495503,3746,-10.313450750364943,10.313450750364943,23.93086385734352
-36.74342642495503,3748,-12.0672578344445,12.0672578344445,23.84301315931494
-40.74342642495503,3751,-17.562330014522054,17.562330014522054,23.75928401324755
-40.74342642495503,3753,-17.912914694761245,17.912914694761245,23.679624234515178
-28.743426424955032,3757,-6.867292174072639,6.867292174072639,23.603968727801686
-27.743426424955032,3759,-7.0234606943811135,7.0234606943811135,23.53224045778073
-2.7434264249550324,3761,17.829771507174993,17.829771507174993,23.46435147518161
45.25657357504497,3764,63.70624629623654,63.70624629623654,23.400203981452837
55.25657357504497,3766,74.55901429402388,74.55901429402388,23.33969141287156
21.256573575044968,3769,37.40362165421809,37.40362165421809,23.282699523920517
-27.743426424955032,3771,-9.666668160189712,9.666668160189712,23.229107451610346
-9.743426424955032,3774,4.196687196339202,4.196687196339202,23.17878874721986
16.256573575044968,3776,33.16066473687137,33.16066473687137,23.13161236744972
-0.7434264249550324,3778,11.202947867135384,11.202947867135384,23.08744362050594
-40.74342642495503,3781,-24.958030783937616,24.958030783937616,23.046145063311773
-62.74342642495503,3783,-52.46557491498889,52.46557491498889,23.007577345124542
-69.74342642495503,3786,-55.03817211206901,55.03817211206901,22.97159999195795
-40.74342642495503,3788,-31.69869925568546,31.69869925568546,22.938072126496753
-14.743426424955032,3790,-1.1080148729479529,1.1080148729479529,22.906853120264174
10.256573575044968,3793,18.59753395262626,18.59753395262626,22.87780317837953
2.2565735750449676,3795,14.81366195733302,14.81366195733302,22.85078386076416
-15.743426424955032,3799,-7.527333284125307,7.527333284125307,22.82565854538248
-40.74342642495503,3801,-29.2544695752609,29.2544695752609,22.802292838647812
-30.743426424955032,3803,-22.093857195437934,22.093857195437934,22.780554936394363
-27.743426424955032,3806,-17.23946127170981,17.23946127170981,22.760315936916395
-38.74342642495503,3808,-29.201800499901037,29.201800499901037,22.741450106146562
