emg;time
1497;2
1498;4
1499;7
1499;9
1499;11
1499;13
1500;16
1501;18
1500;20
1498;23
1500;25
1504;27
1507;30
1506;32
1504;34
1500;36
1498;39
1498;41
1497;44
1498;47
1498;49
1497;51
1497;54
1498;56
1502;58
1502;61
1501;63
1500;65
1499;67
1498;70
1498;72
1498;74
1498;77
1499;79
1500;81
1502;84
1502;87
1504;89
1506;91
1504;94
1502;96
1499;98
1497;101
1496;103
1494;105
1496;108
1499;110
1501;112
1501;115
1501;117
1500;120
1499;122
1499;124
1500;128
1501;130
1499;132
1499;135
1499;137
1501;139
1500;142
1499;144
1500;146
1498;149
1497;151
1497;153
1496;156
1498;158
1501;161
1501;163
1499;165
1500;168
1501;171
1504;173
1507;176
1508;178
1508;180
1505;183
1500;185
1497;187
1496;190
1495;192
1497;194
1499;197
1499;199
1497;202
1495;204
1493;206
1493;209
1496;211
1500;214
1503;217
1506;219
1507;221
1505;224
1503;226
1501;228
1503;231
1504;233
1505;236
1501;238
1497;240
1497;243
1498;245
1497;247
1494;250
1494;252
1495;254
1495;258
1495;260
1494;262
1496;265
1496;267
1496;269
1496;272
1496;274
1496;277
1497;279
1497;281
1498;284
1498;286
1498;288
1497;291
1494;293
1494;295
1496;299
1499;301
1500;303
1500;306
1498;308
1497;310
1500;313
1505;315
1508;318
1508;320
1508;322
1502;325
1499;327
1498;329
1497;332
1501;334
1502;336
1504;339
1505;342
1502;344
1500;347
1499;349
1498;352
1496;354
1495;356
1495;359
1499;361
1503;363
1504;366
1504;368
1501;370
1497;373
1501;375
1506;377
1506;380
1506;382
1502;385
1499;388
1497;390
1496;393
1500;395
1505;397
1505;400
1501;402
1497;404
1496;407
1498;409
1503;411
1502;414
1498;416
1496;418
1495;421
1490;423
1488;425
1488;429
1490;431
1492;434
1493;436
1495;438
1496;441
1496;443
1497;445
1497;448
1494;450
1492;452
1492;455
1494;457
1495;459
1494;462
1493;464
1491;467
1490;470
1491;472
1498;475
1504;477
1504;479
1501;482
1495;484
1491;486
1490;489
1488;491
1486;493
1484;496
1487;498
1492;500
1491;503
1491;505
1489;508
1487;510
1485;513
1486;516
1489;518
1490;520
1489;523
1489;525
1499;527
1503;530
1501;532
1500;534
1499;537
1494;539
1491;541
1491;544
1489;546
1484;549
1483;551
1482;553
1483;557
1483;559
1484;561
1487;564
1492;566
1495;568
1495;571
1495;573
1493;575
1492;578
1491;580
1495;583
1495;585
1491;587
1488;590
1488;592
1489;594
1490;598
1490;600
1488;602
1487;605
1487;607
1487;609
1491;612
1495;614
1496;616
1495;619
1493;621
1491;624
1488;626
1492;628
1497;631
1502;633
1502;635
1499;638
1494;641
1493;643
1492;646
1491;648
1489;650
1485;653
1485;655
1487;657
1491;660
1494;662
1494;665
1493;667
1492;669
1489;672
1487;674
1486;676
1486;679
1489;681
1493;684
1500;687
1501;689
1499;691
1495;694
1493;696
1497;699
1499;701
1498;703
1498;706
1496;708
1491;710
1487;713
1489;715
1493;717
1493;720
1490;722
1488;724
1488;728
1487;730
1486;732
1486;735
1488;737
1491;740
1495;742
1496;744
1495;747
1493;749
1493;751
1494;754
1494;756
1493;758
1491;761
1489;763
1489;765
1492;769
1494;771
1496;774
1496;776
1493;778
1491;781
1491;783
1493;785
1495;788
1495;790
1494;792
1492;795
1490;797
1490;799
1491;802
1494;804
1495;806
1495;809
1496;812
1494;815
1489;817
1486;819
1485;822
1485;824
1487;826
1488;829
1488;831
1487;833
1488;836
1490;838
1491;840
1493;843
1498;845
1500;847
1499;850
1495;852
1492;856
1493;858
1495;860
1497;863
1495;865
1493;867
1490;870
1489;872
1488;874
1488;877
1491;879
1493;881
1494;884
1493;886
1492;889
1492;891
1492;893
1491;897
1492;899
1493;901
1495;904
1504;906
1506;908
1500;911
1495;913
1490;915
1492;918
1493;920
1491;922
1491;925
1490;927
1490;930
1490;932
1491;934
1491;937
1491;940
1491;942
1491;945
1491;947
1494;949
1497;952
1497;954
1496;956
1493;959
1491;961
1490;964
1490;966
1492;968
1492;971
1491;973
1493;975
1497;978
1498;980
1498;983
1494;986
1491;988
1490;990
1489;993
1488;995
1487;997
1487;1000
1486;1002
1488;1005
1492;1007
1495;1009
1494;1012
1493;1014
1492;1017
1492;1019
1490;1022
1487;1025
1487;1027
1492;1030
1496;1032
1497;1035
1494;1037
1491;1039
1489;1042
1488;1044
1488;1047
1488;1049
1489;1051
1491;1054
1492;1056
1493;1059
1495;1061
1498;1063
1501;1067
1503;1069
1504;1072
1501;1074
1499;1076
1495;1079
1492;1081
1491;1084
1490;1086
1490;1088
1490;1091
1490;1093
1492;1096
1492;1098
1491;1100
1491;1103
1492;1105
1491;1108
1492;1111
1493;1113
1493;1116
1491;1118
1493;1121
1493;1123
1493;1126
1495;1128
1497;1130
1497;1133
1496;1135
1496;1138
1494;1140
1494;1142
1494;1145
1495;1147
1495;1150
1494;1153
1494;1155
1494;1158
1493;1160
1493;1163
1497;1165
1498;1167
1498;1170
1497;1172
1495;1175
1496;1177
1495;1179
1495;1182
1496;1184
1498;1187
1497;1189
1497;1191
1497;1195
1495;1197
1493;1200
1491;1202
1490;1204
1491;1207
1495;1209
1499;1212
1499;1214
1497;1217
1497;1219
1496;1221
1493;1224
1490;1226
1491;1229
1492;1231
1493;1233
1494;1236
1493;1239
1494;1242
1496;1244
1497;1246
1497;1249
1495;1251
1493;1254
1493;1256
1492;1258
1491;1261
1492;1263
1493;1266
1494;1268
1496;1270
1498;1273
1496;1275
1496;1278
1497;1281
1498;1283
1496;1286
1495;1288
1496;1291
1498;1293
1501;1295
1501;1298
1499;1300
1497;1303
1495;1305
1494;1308
1496;1310
1499;1312
1502;1315
1504;1317
1506;1320
1507;1323
1506;1325
1504;1328
1503;1330
1503;1333
1505;1335
1506;1337
1504;1340
1501;1342
1501;1345
1502;1347
1506;1349
1508;1352
1507;1354
1505;1357
1503;1359
1505;1361
1505;1364
1506;1367
1508;1370
1509;1372
1510;1374
1506;1377
1503;1379
1503;1382
1503;1384
1503;1386
1502;1389
1501;1391
1503;1394
1505;1396
1506;1398
1509;1401
1513;1403
1512;1406
1511;1409
1510;1412
1507;1414
1505;1416
1502;1419
1503;1421
1509;1424
1516;1426
1518;1428
1518;1431
1517;1433
1512;1436
1508;1438
1505;1440
1503;1443
1501;1445
1499;1448
1498;1451
1497;1453
1496;1456
1495;1458
1495;1461
1494;1463
1494;1465
1495;1468
1496;1470
1496;1473
1497;1475
1497;1477
1497;1480
1497;1482
1497;1485
1497;1487
1497;1490
1497;1492
1497;1495
1497;1498
1497;1500
1498;1503
1501;1505
1516;1507
1532;1510
1540;1512
1550;1515
1564;1517
1571;1519
1569;1522
1580;1524
1596;1527
1606;1529
1600;1531
1583;1534
1586;1537
1608;1540
1624;1542
1628;1544
1616;1547
1601;1549
1571;1552
1559;1554
1583;1556
1589;1559
1566;1561
1520;1564
1476;1566
1462;1568
1489;1571
1504;1573
1512;1576
1542;1579
1548;1582
1522;1584
1513;1586
1514;1589
1505;1591
1485;1594
1478;1596
1471;1598
1469;1601
1469;1603
1469;1606
1477;1608
1503;1610
1507;1613
1491;1615
1472;1618
1455;1620
1466;1623
1477;1626
1476;1628
1464;1631
1459;1633
1462;1635
1456;1638
1452;1640
1447;1643
1451;1645
1460;1647
1459;1650
1448;1652
1440;1655
1439;1657
1444;1660
1448;1662
1448;1665
1450;1668
1453;1670
1464;1673
1478;1675
1477;1677
1463;1680
1450;1682
1450;1685
1455;1687
1458;1689
1483;1692
1487;1694
1483;1697
1473;1699
1469;1701
1493;1704
1498;1707
1485;1710
1469;1712
1458;1714
1454;1717
1454;1719
1480;1722
1511;1724
1508;1726
1488;1729
1454;1731
1461;1734
1473;1736
1471;1738
1461;1741
1441;1743
1428;1746
1421;1748
1417;1751
1416;1754
1416;1756
1413;1759
1422;1761
1424;1764
1414;1766
1414;1768
1420;1771
1420;1773
1402;1776
1385;1778
1379;1780
1380;1783
1383;1785
1378;1788
1374;1790
1390;1793
1404;1796
1398;1798
1387;1801
1382;1803
1387;1805
1388;1808
1390;1810
1385;1813
1379;1815
1383;1817
1393;1820
1408;1822
1407;1825
1401;1827
1408;1829
1412;1832
1405;1835
1418;1838
1435;1840
1449;1842
1458;1845
1448;1847
1431;1850
1410;1852
1407;1854
1429;1857
1451;1859
1452;1862
1448;1864
1435;1867
1426;1869
1422;1871
1451;1874
1471;1876
1466;1880
1461;1882
1449;1884
1437;1887
1429;1889
1436;1892
1452;1894
1488;1896
1483;1899
1458;1901
1431;1904
1421;1906
1437;1908
1456;1911
1464;1913
1452;1916
1442;1918
1450;1921
1477;1924
1510;1926
1508;1929
1490;1931
1472;1933
1446;1936
1439;1938
1438;1941
1458;1943
1472;1945
1468;1948
1457;1950
1444;1953
1456;1955
1464;1958
1483;1960
1502;1963
1489;1966
1467;1968
1454;1971
1453;1973
1456;1975
1458;1978
1445;1980
1443;1983
1461;1985
1479;1987
1486;1990
1474;1992
1472;1995
1480;1997
1478;1999
1470;2002
1456;2004
1465;2008
1484;2010
1508;2012
1501;2015
1491;2017
1476;2020
1461;2022
1450;2024
1444;2027
1450;2029
1459;2032
1463;2034
1467;2036
1507;2039
1530;2041
1534;2044
1514;2046
1485;2050
1480;2052
1474;2054
1473;2057
1481;2059
1485;2062
1475;2064
1471;2066
1467;2069
1467;2071
1471;2074
1492;2076
1504;2078
1494;2081
1488;2083
1479;2086
1469;2088
1486;2091
1492;2094
1505;2096
1512;2099
1496;2101
1479;2103
1468;2106
1487;2108
1498;2111
1485;2113
1482;2115
1482;2118
1480;2120
1476;2123
1483;2125
1520;2127
1522;2130
1499;2132
1467;2136
1454;2138
1459;2141
1474;2143
1497;2145
1508;2148
1502;2150
1486;2153
1476;2155
1511;2157
1524;2160
1512;2162
1490;2165
1473;2167
1471;2169
1479;2172
1493;2174
1508;2178
1507;2180
1505;2182
1514;2185
1506;2187
1491;2190
1506;2192
1529;2194
1519;2197
1498;2199
1474;2202
1463;2204
1492;2206
1531;2209
1548;2211
1541;2214
1505;2216
1472;2220
1453;2222
1459;2224
1479;2227
1505;2229
1527;2232
1528;2234
1498;2236
1483;2239
1484;2241
1488;2244
1485;2246
1467;2248
1468;2251
1500;2253
1501;2256
1478;2258
1466;2260
1481;2264
1485;2266
1476;2269
1475;2271
1497;2273
1504;2276
1500;2278
1489;2281
1484;2283
1480;2285
1463;2288
1473;2290
1509;2293
1531;2295
1518;2297
1487;2300
1460;2302
1463;2306
1479;2308
1477;2311
1492;2313
1497;2315
1496;2318
1486;2320
1476;2323
1491;2325
1508;2327
1503;2330
1484;2332
1470;2335
1477;2337
1476;2339
1486;2342
1507;2344
1535;2348
1530;2350
1505;2352
1493;2355
1473;2357
1460;2360
1473;2362
1508;2364
1523;2367
1529;2369
1508;2372
1488;2374
1469;2377
1464;2379
1463;2381
1472;2384
1495;2386
1511;2390
1518;2392
1507;2394
1490;2397
1492;2399
1496;2402
1507;2404
1504;2406
1521;2409
1525;2411
1507;2414
1477;2416
1465;2418
1472;2421
1480;2423
1481;2426
1484;2428
1504;2430
1502;2434
1491;2436
1497;2439
1496;2441
1483;2443
1474;2446
1470;2448
1488;2451
1489;2453
1481;2456
1504;2458
1516;2460
1507;2463
1485;2465
1478;2468
1487;2470
1492;2472
1499;2476
1505;2478
1499;2481
1485;2483
1472;2485
1488;2488
1499;2490
1486;2493
1468;2495
1472;2497
1502;2500
1523;2502
1535;2505
1512;2507
1494;2509
1478;2512
1484;2514
1499;2518
1497;2520
1502;2522
1517;2525
1521;2527
1500;2530
1473;2532
1460;2535
1454;2537
1457;2539
1458;2542
1464;2544
1522;2547
1557;2549
1548;2551
1505;2554
1475;2556
1475;2560
1481;2562
1476;2564
1466;2567
1482;2569
1491;2572
1482;2574
1465;2576
1459;2579
1497;2581
1509;2584
1496;2586
1477;2588
1484;2591
1508;2593
1502;2596
1490;2598
1466;2600
1471;2604
1476;2606
1475;2609
1470;2611
1475;2613
1497;2616
1503;2618
1491;2621
1478;2623
1473;2625
1478;2628
1478;2630
1475;2633
1491;2635
1497;2638
1503;2640
1503;2642
1504;2646
1509;2648
1512;2651
1498;2653
1480;2655
1486;2658
1510;2660
1525;2663
1511;2665
1484;2667
1464;2670
1464;2672
1488;2675
1494;2677
1490;2679
1499;2682
1506;2684
1534;2688
1537;2690
1514;2692
1483;2695
1475;2697
1494;2700
1516;2702
1508;2704
1495;2707
1482;2709
1486;2712
1505;2714
1519;2716
1510;2719
1498;2721
1485;2724
1479;2726
1473;2729
1484;2732
1498;2734
1497;2737
1497;2739
1510;2742
1512;2744
1501;2746
1479;2749
1469;2751
1491;2754
1515;2756
1522;2758
1507;2761
1489;2763
1482;2766
1469;2768
1464;2770
1489;2774
1506;2776
1504;2779
1487;2781
1477;2783
1499;2786
1510;2788
1500;2791
1476;2793
1470;2795
1489;2798
1505;2800
1502;2803
1491;2805
1467;2807
1465;2810
1508;2812
1527;2816
1520;2818
1500;2821
1486;2823
1483;2825
1475;2828
1476;2830
1485;2833
1480;2835
1470;2837
1492;2840
1516;2842
1521;2845
1497;2847
1472;2849
1477;2852
1488;2854
1489;2857
1478;2860
1482;2862
1506;2865
1510;2867
1493;2870
1473;2872
1480;2874
1521;2877
1536;2879
1514;2882
1493;2884
1488;2886
1481;2889
1480;2891
1494;2894
1490;2896
1484;2898
1475;2902
1490;2904
1509;2907
1502;2909
1481;2912
1479;2914
1519;2916
1530;2919
1517;2921
1487;2924
1469;2926
1486;2928
1526;2931
1541;2933
1515;2936
1476;2938
1466;2940
1472;2944
1471;2946
1489;2949
1495;2951
1486;2953
1482;2956
1494;2958
1518;2961
1509;2963
1485;2965
1463;2968
1468;2970
1506;2973
1519;2975
1503;2977
1480;2980
1472;2982
1475;2985
1476;2988
1483;2991
1508;2993
1512;2995
1494;2998
1470;3000
1450;3003
1450;3005
1453;3007
1459;3010
1494;3012
1528;3015
1513;3017
1487;3019
1468;3022
1469;3024
1482;3027
1480;3030
1472;3032
1457;3035
1446;3037
1462;3040
1499;3042
1519;3044
1518;3047
1502;3049
1486;3052
1483;3054
1481;3056
1489;3059
1510;3061
1545;3064
1538;3066
1501;3069
1472;3072
1484;3074
1491;3077
1482;3079
1465;3082
1463;3084
1463;3086
1467;3089
1495;3091
1506;3094
1527;3096
1521;3098
1506;3101
1495;3103
1508;3106
1514;3108
1498;3110
1475;3113
1481;3116
1514;3119
1512;3121
1492;3123
1483;3126
1486;3128
1486;3131
1490;3133
1487;3136
1490;3138
1485;3140
1488;3143
1502;3145
1507;3148
1509;3150
1499;3152
1501;3155
1510;3158
1510;3161
1513;3163
1509;3165
1506;3168
1512;3170
1498;3173
1483;3175
1475;3177
1485;3180
1508;3182
1512;3185
1496;3187
1487;3189
1493;3192
1491;3194
1484;3197
1497;3200
1516;3203
1511;3205
1487;3207
1466;3210
1472;3212
1486;3215
1518;3217
1532;3219
1517;3222
1496;3224
1485;3227
1477;3229
1489;3231
1509;3234
1505;3236
1502;3239
1493;3241
1479;3244
1481;3247
1500;3249
1503;3252
1495;3254
1491;3256
1504;3259
1523;3261
1519;3264
1512;3266
1494;3268
1485;3271
1512;3273
1523;3276
1513;3278
1504;3280
1511;3283
1506;3286
1485;3289
1464;3291
1458;3294
1486;3296
1533;3298
1539;3301
1518;3303
1495;3306
1468;3308
1468;3310
1491;3313
1494;3315
1483;3318
1475;3320
1507;3322
1532;3325
1532;3328
1520;3331
1505;3333
1509;3335
1514;3338
1515;3340
1507;3343
1506;3345
1494;3347
1486;3350
1482;3352
1520;3355
1540;3357
1527;3359
1501;3362
1478;3364
1506;3367
1516;3369
1507;3373
1486;3375
1480;3377
1508;3380
1515;3382
1510;3385
1496;3387
1483;3389
1489;3392
1495;3394
1495;3397
1494;3399
1500;3401
1506;3404
1515;3406
1519;3409
1521;3411
1514;3414
1498;3417
1488;3419
1486;3422
1486;3424
1488;3426
1491;3429
1498;3431
1493;3434
1480;3436
1476;3438
1474;3441
1478;3443
1509;3446
1529;3448
1517;3450
1492;3453
1476;3456
1477;3459
1511;3461
1529;3464
1515;3466
1496;3468
1482;3471
1481;3473
1480;3476
1503;3478
1541;3480
1542;3483
1525;3485
1505;3488
1488;3490
1494;3492
1497;3495
1487;3497
1494;3501
1518;3503
1518;3505
1497;3508
1492;3510
1491;3513
1489;3515
1490;3517
1519;3520
1530;3522
1518;3525
1492;3527
1474;3530
1470;3532
1481;3534
1482;3537
1495;3539
1521;3543
1524;3545
1538;3547
1540;3550
1525;3552
1518;3555
1509;3557
1532;3559
1543;3562
1540;3564
1515;3567
1487;3569
1492;3571
1502;3574
1505;3576
1503;3579
1493;3581
1475;3584
1469;3587
1469;3589
1487;3592
1498;3594
1493;3596
1481;3599
1485;3601
1498;3604
1491;3606
1466;3609
1456;3611
1469;3613
1513;3616
1523;3618
1503;3621
1473;3623
1463;3625
1476;3629
1489;3631
1483;3634
1469;3636
1462;3638
1470;3641
1495;3643
1529;3646
1522;3648
1496;3650
1480;3653
1468;3655
1460;3658
1494;3660
1515;3662
1518;3665
1518;3667
1511;3671
1496;3673
1485;3675
1473;3678
1456;3680
1454;3683
1517;3685
1556;3688
1551;3690
1519;3692
1486;3695
1477;3697
1524;3700
1539;3702
1523;3704
1488;3707
1460;3709
1467;3713
1517;3715
1529;3717
1508;3720
1478;3722
1458;3725
1461;3727
1473;3729
1482;3732
1490;3734
1519;3737
1556;3739
1545;3741
1509;3744
1473;3746
1459;3749
1474;3751
1494;3753
1492;3757
1504;3759
1502;3762
1483;3764
1485;3767
1499;3769
1508;3771
1496;3774
1478;3776
1489;3779
1499;3781
1487;3783
1473;3786
1467;3788
1504;3791
1524;3793
1519;3795
1498;3799
1472;3801
1463;3804
1464;3806
1468;3808
1484;3811
1503;3813
1509;3816
1492;3818
1482;3820
1489;3823
1490;3825
1494;3828
1491;3830
1491;3832
1507;3835
1532;3837
1522;3841
1495;3843
1477;3846
1492;3848
1521;3850
1529;3853
1510;3855
1486;3858
1462;3860
1474;3862
1510;3865
1540;3867
1535;3870
1507;3872
1483;3874
1485;3877
1490;3879
1491;3883
1487;3885
1472;3887
1464;3890
1476;3892
1496;3895
1507;3897
1509;3899
1502;3902
1493;3904
1492;3907
1492;3909
1486;3911
1522;3914
1561;3916
1554;3919
1530;3921
1490;3923
1466;3927
1461;3929
1473;3932
1494;3934
1529;3937
1534;3939
1512;3941
1488;3944
1481;3946
1488;3949
1530;3951
1554;3953
1537;3956
1501;3958
1495;3961
1514;3963
1529;3965
1507;3969
1485;3971
1478;3974
1486;3976
1491;3978
1489;3981
1482;3983
1478;3986
1481;3988
1498;3990
1496;3993
1506;3995
1546;3998
1548;4000
1522;4003
1490;4005
1470;4007
1465;4011
1466;4013
1480;4016
1495;4018
1502;4020
1500;4023
1500;4025
1529;4028
1564;4030
1553;4032
1521;4035
1501;4037
1506;4040
1509;4042
1499;4044
1483;4047
1471;4049
1471;4052
1482;4055
1484;4057
1488;4060
1491;4062
1502;4065
1545;4067
1567;4069
1548;4072
1510;4074
1485;4077
1486;4079
1515;4081
1515;4084
1499;4086
1481;4089
1474;4091
1505;4094
1519;4097
1516;4099
1524;4102
1549;4104
1543;4107
1511;4109
1484;4111
1479;4114
1509;4116
1524;4119
1517;4121
1503;4123
1494;4126
1491;4128
1478;4131
1484;4133
1528;4135
1546;4139
1538;4141
1511;4144
1478;4146
1467;4148
1469;4151
1480;4153
1497;4156
1495;4158
1487;4160
1506;4163
1512;4165
1509;4168
1506;4170
1501;4173
1504;4175
1511;4177
1509;4180
1495;4183
1482;4186
1513;4188
1551;4190
1558;4193
1541;4195
1506;4198
1501;4200
1501;4202
1508;4205
1502;4207
1484;4210
1478;4212
1495;4214
1509;4217
1513;4219
1497;4222
1476;4225
1471;4227
1477;4230
1494;4232
1512;4235
1509;4237
1494;4239
1505;4242
1526;4244
1533;4247
1532;4249
1526;4252
1520;4254
1509;4256
1488;4259
1474;4261
1466;4264
1488;4267
1517;4269
1538;4272
1527;4274
1506;4277
1489;4279
1482;4281
1483;4284
1481;4286
1478;4289
1476;4291
1480;4293
1502;4296
1527;4298
1537;4301
1524;4303
1499;4305
1502;4308
1510;4311
1500;4314
1493;4316
1490;4318
1492;4321
1497;4323
1500;4326
1519;4328
1542;4331
1546;4333
1523;4335
1490;4338
1481;4340
1502;4343
1506;4345
1494;4347
1482;4350
1480;4353
1516;4356
1528;4358
1517;4360
1492;4363
1485;4365
1515;4368
1526;4370
1521;4372
1512;4375
1498;4377
1501;4380
1516;4382
1520;4384
1522;4387
1520;4389
1513;4392
1528;4395
1534;4397
1526;4400
1505;4402
1513;4405
1539;4407
1547;4410
1534;4412
1500;4414
1472;4417
1467;4419
1485;4422
1500;4424
1519;4426
1509;4429
1486;4431
1490;4434
1505;4436
1537;4439
1535;4442
1504;4444
1478;4447
1474;4449
1480;4451
1481;4454
1490;4456
1491;4459
1495;4461
1504;4463
1528;4466
1534;4468
1525;4471
1503;4473
1480;4475
1482;4478
1507;4481
1510;4484
1512;4486
1501;4489
1485;4491
1473;4493
1470;4496
1488;4498
1494;4501
1526;4503
1549;4505
1528;4508
1496;4510
1472;4513
1464;4515
1471;4517
1495;4520
1498;4523
1490;4526
1478;4528
1463;4530
1475;4533
1539;4535
1562;4538
1544;4540
1505;4542
1464;4545
1446;4547
1443;4550
1455;4552
1500;4554
1541;4557
1539;4559
1507;4562
1479;4564
1460;4568
1457;4570
1463;4572
1467;4575
1482;4577
1487;4580
1492;4582
1497;4584
1514;4587
1516;4589
1506;4592
1487;4594
1469;4596
1458;4599
1464;4601
1467;4604
1465;4606
1463;4609
1474;4612
1481;4614
1479;4617
1472;4619
1470;4621
1472;4624
1480;4626
1486;4629
1487;4631
1484;4633
1477;4636
1471;4638
1487;4641
1495;4643
1487;4646
1478;4648
1474;4651
1482;4654
1483;4656
1479;4659
1471;4661
1466;4663
1469;4666
1470;4668
1472;4671
1473;4673
1475;4675
1478;4678
1482;4680
1488;4683
1490;4685
1489;4687
1488;4690
1488;4692
1497;4696
1509;4698
1514;4700
1508;4703
1498;4705
1492;4708
1488;4710
1492;4712
1498;4715
1502;4717
1503;4720
1503;4722
1503;4725
1498;4727
1494;4729
1493;4732
1491;4734
1490;4738
1489;4740
1488;4742
1488;4745
1487;4747
1487;4750
1490;4752
1494;4754
1497;4757
1500;4759
1504;4762
1507;4764
1508;4766
1507;4769
1507;4771
1508;4774
1510;4776
1513;4779
1516;4782
1520;4784
1528;4787
1534;4789
1534;4792
1534;4794
1533;4796
1532;4799
1529;4801
1527;4804
1526;4806
1528;4808
1529;4811
1530;4813
1532;4816
1535;4818
1538;4820
1539;4824
1540;4826
1543;4829
1544;4831
1544;4833
1545;4836
1544;4838
1545;4841
1544;4843
1545;4845
1549;4848
1554;4850
1559;4853
1560;4855
1559;4857
1558;4860
1556;4862
1553;4866
1552;4868
1551;4870
1552;4873
1552;4875
1553;4878
1554;4880
1555;4883
1556;4885
1557;4887
1558;4890
1558;4892
1559;4895
1561;4897
1563;4899
1568;4902
1576;4904
1582;4908
1582;4910
1579;4912
1572;4915
1567;4917
1564;4920
1563;4922
1562;4924
1562;4927
1563;4929
1571;4932
1578;4934
1578;4936
1577;4939
1573;4941
1568;4944
1565;4946
1564;4950
1564;4952
1565;4954
1570;4957
1571;4959
1570;4962
1568;4964
1566;4966
1564;4969
1564;4971
1566;4974
1567;4976
1566;4978
1567;4981
1567;4983
1566;4986
1564;4988
1564;4990
1564;4994
1564;4996
1563;4999
1563;5001
1563;5003
1567;5006
1574;5008
1576;5011
1577;5013
1575;5016
1570;5018
1564;5020
1560;5023
1557;5025
1557;5028
1557;5030
1561;5032
1563;5036
1562;5038
1559;5041
1557;5043
1554;5045
1551;5048
1549;5050
1548;5053
1548;5055
1548;5057
1550;5060
1553;5062
1553;5065
1553;5067
1551;5069
1550;5072
1548;5074
1546;5078
1548;5080
1551;5083
1553;5085
1554;5087
1553;5090
1550;5092
1548;5095
1545;5097
1543;5099
1542;5102
1543;5104
1547;5107
1553;5109
1553;5111
1551;5114
1548;5116
1544;5120
1542;5122
1540;5124
1539;5127
1538;5129
1536;5132
1536;5134
1538;5136
1539;5139
1539;5141
1538;5144
1538;5146
1539;5149
1539;5151
1539;5153
1538;5156
1537;5158
1536;5161
1537;5164
1537;5166
1538;5169
1539;5171
1542;5174
1545;5176
1543;5178
1540;5181
1534;5183
1530;5186
1527;5188
1526;5190
1525;5193
1524;5195
1525;5198
1526;5200
1529;5202
1530;5206
1531;5208
1531;5211
1529;5213
1525;5215
1523;5218
1521;5220
1521;5223
1520;5225
1521;5227
1521;5230
1520;5232
1520;5235
1520;5237
1520;5239
1521;5242
1523;5244
1527;5248
1530;5250
1534;5253
1535;5255
1530;5257
1525;5260
1522;5262
1519;5265
1517;5267
1517;5269
1516;5272
1516;5274
1520;5277
1524;5279
1524;5281
1523;5284
1520;5286
1516;5289
1513;5292
1511;5294
1510;5297
1510;5299
1510;5302
1511;5304
1512;5306
1513;5309
1514;5311
1514;5314
1513;5316
1513;5318
1512;5321
1517;5323
1523;5326
1528;5328
1526;5331
1522;5334
1519;5336
1523;5339
1524;5341
1520;5344
1516;5346
1511;5348
1508;5351
1506;5353
1508;5356
1510;5358
1511;5360
1509;5363
1505;5365
1501;5368
1499;5370
1500;5372
1499;5376
1499;5378
1499;5381
1499;5383
1499;5385
1500;5388
1501;5390
1501;5393
1500;5395
1499;5397
1501;5400
1503;5402
1507;5405
1508;5407
1510;5410
1508;5412
1504;5414
1501;5417
1497;5420
1496;5423
1498;5425
1500;5427
1502;5430
1505;5432
1505;5435
1502;5437
1500;5439
1497;5442
1495;5444
1497;5447
1497;5449
1497;5451
1494;5454
1493;5456
1493;5459
1493;5462
1493;5464
1493;5467
1492;5469
1493;5472
1494;5474
1494;5476
1493;5479
1493;5481
1493;5484
1493;5486
1493;5489
1493;5491
1494;5493
1500;5496
1507;5498
1510;5501
1510;5504
1508;5506
1503;5509
1498;5511
1497;5514
1500;5516
1501;5518
1501;5521
1501;5523
1501;5526
1498;5528
1498;5530
1499;5533
1498;5535
1496;5538
1495;5540
1496;5542
1500;5545
1507;5548
1512;5551
1509;5553
1504;5555
1500;5558
1497;5560
1496;5563
1495;5565
1495;5568
1497;5570
1501;5572
1502;5575
1504;5577
1501;5580
1499;5582
1498;5584
1500;5587
1499;5590
1496;5593
1497;5595
1497;5597
1496;5600
1495;5602
1493;5605
1492;5607
1492;5609
1494;5612
1496;5614
1496;5617
1495;5619
1494;5621
1492;5624
1492;5626
1491;5629
1491;5632
1492;5634
1493;5637
1494;5639
1494;5642
1493;5644
1493;5647
1495;5649
1499;5651
1500;5654
1497;5656
1494;5659
1493;5661
1491;5663
1490;5666
1491;5668
1493;5671
1494;5673
1495;5676
1496;5679
1497;5681
1496;5684
1495;5686
1492;5688
1489;5691
1488;5693
1489;5696
1490;5698
1491;5700
1491;5703
1490;5705
1490;5708
1492;5710
1494;5712
1495;5715
1494;5718
1490;5721
1489;5723
1490;5726
1493;5728
1493;5730
1493;5733
1490;5735
1489;5738
1489;5740
1489;5742
1486;5745
1484;5747
1483;5750
1483;5752
1486;5754
1487;5757
1486;5760
1486;5763
1485;5765
1485;5767
1484;5770
1484;5772
1485;5775
1485;5777
1485;5779
1483;5782
1481;5784
1480;5787
1480;5789
1484;5791
1489;5794
1492;5796
1495;5799
1496;5801
1493;5805
1491;5807
1489;5809
1486;5812
1485;5814
1486;5817
1485;5819
1485;5821
1485;5824
1488;5826
1490;5829
1489;5831
1489;5833
1489;5836
1487;5838
1486;5841
1482;5843
1480;5846
1479;5849
1480;5851
1480;5854
1480;5856
1479;5858
1478;5861
1478;5863
1478;5866
1478;5868
1480;5870
1480;5873
1479;5875
1479;5878
1478;5880
1480;5883
1483;5885
1485;5888
1488;5891
1488;5893
1488;5896
1489;5898
1489;5900
1487;5903
1485;5905
1484;5908
1484;5910
1485;5912
1485;5915
1485;5917
1483;5920
1483;5922
1485;5924
1487;5927
1488;5929
1487;5933
1487;5935
1486;5937
1486;5940
1487;5942
1489;5945
1491;5947
1495;5949
1496;5952
1494;5954
1493;5957
1495;5959
1495;5962
1496;5964
1497;5966
1498;5969
1497;5971
1496;5975
1494;5977
1493;5979
1492;5982
1494;5984
1494;5987
1494;5989
1494;5991
1495;5994
1497;5996
1501;5999
1506;6001
1508;6003
1506;6006
1503;6008
1500;6011
1498;6013
1496;6016
1496;6019
1499;6021
1501;6024
1503;6026
1504;6028
1504;6031
1502;6033
1499;6036
1495;6038
1494;6041
1495;6043
1497;6045
1498;6048
1497;6050
1495;6053
1492;6055
1492;6057
1494;6061
1498;6063
1503;6066
1502;6068
1501;6070
1498;6073
1496;6075
1496;6078
1495;6080
1493;6082
1492;6085
1493;6087
1495;6090
1493;6092
1490;6094
1489;6097
1490;6099
1490;6103
1490;6105
1493;6108
1497;6110
1496;6112
1495;6115
1493;6117
1488;6120
1484;6122
1483;6124
1481;6127
1481;6129
1482;6132
1483;6134
1482;6136
1482;6139
1482;6141
1483;6145
1483;6147
1483;6149
1483;6152
1483;6154
1485;6157
1487;6159
1490;6161
1493;6164
1493;6166
1491;6169
1490;6171
1488;6174
1488;6176
1490;6178
1491;6181
1491;6183
1490;6187
1490;6189
1488;6191
1486;6194
1484;6196
1485;6199
1488;6201
1489;6203
1489;6206
1488;6208
1486;6211
1486;6213
1487;6215
1488;6218
1491;6220
1494;6223
1493;6225
1491;6227
1488;6231
1484;6233
1482;6236
1481;6238
1481;6240
1480;6243
1480;6245
1481;6248
1481;6250
1481;6253
1481;6255
1482;6257
1483;6260
1486;6262
1491;6265
1495;6267
1498;6269
1498;6273
1496;6275
1494;6278
1494;6280
1493;6282
1493;6285
1494;6287
1496;6290
1498;6292
1498;6294
1494;6297
1488;6299
1486;6302
1491;6304
1494;6306
1496;6309
1496;6311
1494;6315
1492;6317
1490;6320
1487;6322
1486;6324
1487;6327
1494;6329
1496;6332
1494;6334
1490;6336
1485;6339
1482;6341
1480;6344
1479;6346
1478;6348
1479;6351
1480;6353
1480;6356
1480;6359
1480;6361
1480;6364
1479;6366
1481;6369
1485;6371
1491;6373
1492;6376
1492;6378
1492;6381
1491;6383
1490;6386
1487;6388
1485;6390
1482;6393
1481;6395
1479;6398
1478;6401
1477;6403
1477;6406
1478;6408
1477;6411
1479;6413
1486;6415
1496;6418
1502;6420
1502;6423
1498;6425
1494;6427
1490;6430
1488;6432
1489;6435
1492;6437
1490;6439
1488;6443
1487;6445
1487;6448
1487;6450
1485;6452
1482;6455
1481;6457
1481;6460
1481;6462
1482;6464
1481;6467
1480;6469
1480;6472
1486;6474
1491;6476
1492;6479
1490;6481
1488;6484
1482;6487
1479;6490
1480;6492
1480;6494
1483;6497
1482;6499
1478;6502
1475;6504
1473;6506
1473;6509
1474;6511
1477;6514
1479;6516
1485;6518
1487;6521
1486;6523
1484;6526
1480;6529
1478;6531
1481;6534
1482;6536
1482;6539
1483;6541
1484;6543
1483;6546
1482;6548
1479;6551
1477;6553
1478;6555
1480;6558
1483;6560
1485;6563
1487;6565
1486;6567
1485;6571
1483;6573
1484;6576
1482;6578
1480;6581
1481;6583
1485;6585
1487;6588
1486;6590
1485;6593
1484;6595
1483;6597
1482;6600
1480;6602
1481;6605
1483;6607
1483;6609
1482;6612
1480;6615
1479;6618
1478;6620
1478;6622
1478;6625
1477;6627
1477;6630
1477;6632
1477;6634
1477;6637
1477;6639
1479;6642
1487;6644
1502;6646
1507;6649
1506;6651
1502;6654
1494;6657
1488;6659
1483;6662
1481;6664
1479;6667
1479;6669
1481;6672
1484;6674
1484;6676
1483;6679
1481;6681
1487;6684
1496;6686
1501;6688
1502;6691
1498;6693
1495;6696
1492;6699
1489;6701
1487;6704
1489;6706
1489;6709
1489;6711
1487;6713
1485;6716
1483;6718
1481;6721
1480;6723
1480;6725
1480;6728
1480;6730
1480;6733
1480;6735
1481;6737
1486;6740
1499;6743
1507;6746
1509;6748
1506;6751
1502;6753
1499;6755
1497;6758
1495;6760
1493;6763
1490;6765
1488;6767
1486;6770
1486;6772
1489;6775
1489;6777
1488;6779
1487;6782
1485;6785
1485;6788
1484;6790
1484;6792
1484;6795
1484;6797
1484;6800
1484;6802
1484;6804
1486;6807
1494;6809
1502;6812
1506;6814
1509;6816
1512;6819
1512;6821
1508;6824
1503;6827
1502;6829
1500;6832
1497;6834
1497;6837
1502;6839
1504;6842
1503;6844
1500;6846
1496;6849
1490;6851
1488;6854
1489;6856
1489;6858
1488;6861
1487;6863
1485;6866
1483;6868
1481;6871
1482;6874
1482;6876
1483;6879
1484;6881
1485;6883
1483;6886
1482;6888
1481;6891
1481;6893
1481;6895
1484;6898
1486;6900
1489;6903
1496;6905
1498;6907
1498;6910
1496;6913
1493;6916
1489;6918
1487;6921
1485;6923
1483;6925
1482;6928
1484;6930
1486;6933
1486;6935
1485;6937
1486;6940
1492;6942
1502;6945
