I2C Verbindung gefunden!.
1462	2
1447	4
1450	7
1468	9
1494	11
1511	13
1520	16
1520	18
1512	20
1528	23
1517	25
1497	27
1477	30
1492	32
1518	34
1552	36
1524	39
1485	41
1449	44
1474	47
1498	49
1503	51
1486	54
1450	56
1431	58
1439	61
1463	63
1481	65
1479	67
1480	70
1501	72
1501	74
1475	77
1473	79
1507	81
1512	84
1489	87
1474	89
1478	91
1481	94
1469	96
1460	98
1479	101
1508	103
1518	105
1529	108
1520	110
1500	112
1492	115
1493	117
1476	120
1461	122
1476	124
1490	128
1508	130
1540	132
1544	135
1538	137
1521	139
1522	142
1519	144
1512	146
1484	149
1446	151
1432	153
1435	156
1437	158
1456	161
1471	163
1485	165
1481	168
1464	171
1447	173
1471	176
1506	178
1522	180
1543	183
1543	185
1535	187
1512	190
1499	192
1495	194
1481	197
1484	199
1489	202
1489	204
1505	206
1509	209
1495	211
1504	214
1509	217
1495	219
1468	221
1453	224
1476	226
1502	228
1506	231
1495	233
1459	236
1429	238
1421	240
1456	243
1472	245
1470	247
1482	250
1520	252
1524	254
1504	258
1480	260
1475	262
1461	265
1452	267
1467	269
1470	272
1451	274
1476	277
1549	279
1571	281
1535	284
1489	286
1447	288
1423	291
1439	293
1468	295
1462	299
1446	301
1454	303
1478	306
1479	308
1463	310
1458	313
1486	315
1507	318
1508	320
1522	322
1512	325
1488	327
1453	329
1429	332
1412	334
1424	336
1434	339
1440	342
1439	344
1442	347
1454	349
1468	351
1472	354
1477	356
1484	359
1498	361
1498	363
1511	366
1529	368
1506	370
1482	373
1483	375
1485	377
1488	380
1496	382
1500	385
1483	388
1467	390
1492	393
1540	395
1536	397
1508	400
1472	402
1453	404
1439	407
1434	409
1467	411
1494	414
1497	416
1484	418
1482	421
1492	423
1487	425
1484	429
1513	431
1518	434
1501	436
1497	438
1502	441
1501	443
1496	445
1491	448
1505	450
1513	452
1519	455
1508	457
1511	459
1499	462
1472	464
1483	466
1500	470
1503	472
1475	475
1470	477
1477	479
1500	482
1497	484
1479	486
1470	489
1465	491
1497	493
1499	496
1472	498
1439	500
1419	503
1427	505
1461	508
1470	510
1470	513
1476	516
1490	518
1510	520
1532	523
1554	525
1565	527
1540	530
1506	532
1467	534
1472	537
1464	539
1450	541
1444	544
1460	546
1491	549
1500	551
1480	553
1450	557
1445	559
1460	561
1483	564
1490	566
1501	568
1511	571
1521	573
1531	575
1534	578
1546	580
1533	583
1517	585
1480	587
1485	590
1506	592
1513	594
1510	598
1495	600
1489	602
1484	605
1505	607
1548	609
1553	612
1537	614
1530	616
1513	619
1491	621
1475	624
1480	626
1480	628
1484	631
1482	633
1480	635
1488	638
1494	641
1513	643
1507	646
1497	648
1484	650
1486	653
1477	655
1459	658
1461	660
1464	662
1469	665
1492	667
1536	669
1564	672
1557	674
1523	676
1481	679
1456	681
1447	684
1445	687
1455	689
1474	691
1484	694
1487	696
1483	699
1463	701
1450	703
1474	706
1496	708
1483	710
1490	713
1525	715
1539	717
1533	720
1506	722
1475	724
1451	728
1453	730
1454	732
1471	735
1497	737
1501	740
1480	742
1484	744
1507	747
1489	749
1466	751
1468	754
1532	756
1535	758
1504	761
1459	763
1454	765
1504	769
1527	771
1514	774
1473	776
1461	778
1463	781
1482	783
1496	785
1494	788
1485	790
1502	792
1509	795
1496	797
1470	799
1476	802
1501	804
1510	806
1520	809
1510	812
1505	815
1499	817
1539	819
1530	822
1501	824
1466	826
1461	829
1456	831
1452	833
1477	836
1514	838
1510	840
1496	843
1481	845
1509	848
1552	850
1551	852
1511	856
1481	858
1466	860
1489	863
1497	865
1485	867
1467	870
1465	872
1469	874
1488	877
1500	879
1483	881
1477	884
1477	886
1483	889
1485	891
1480	893
1467	897
1462	899
1465	901
1475	904
1477	906
1494	908
1509	911
1521	913
1530	915
1538	918
1531	920
1516	922
1505	925
1508	927
1511	930
1517	932
1516	934
1501	937
1499	940
1489	942
1480	945
1470	947
1466	949
1478	952
1511	954
1528	956
1535	959
1548	961
1537	964
1502	966
1462	968
1457	971
1479	973
1487	975
1474	978
1462	980
1480	983
1491	986
1480	988
1463	990
1464	993
1490	995
1505	997
1534	1000
1534	1002
1510	1005
1511	1007
1530	1009
1518	1012
1483	1014
1480	1017
1512	1019
1537	1022
1535	1025
1534	1027
1543	1030
1535	1032
1517	1035
1494	1037
1466	1039
1467	1042
1490	1044
1524	1047
1522	1049
1503	1051
1488	1054
1472	1056
1445	1059
1425	1061
1428	1063
1435	1067
1470	1069
1488	1072
1505	1074
1517	1076
1504	1079
1481	1081
1472	1084
1467	1086
1467	1088
1478	1091
1480	1093
1512	1096
1527	1098
1518	1100
1495	1103
1499	1105
1536	1108
1566	1111
1559	1114
1540	1116
1504	1118
1478	1121
1470	1123
1470	1126
1474	1128
1481	1130
1492	1133
1487	1135
1471	1138
1479	1140
1499	1142
1498	1145
1489	1147
1517	1150
1534	1153
1535	1155
1513	1158
1490	1160
1487	1163
1491	1165
1523	1167
1521	1170
1519	1172
1527	1175
1538	1177
1523	1179
1524	1182
1519	1184
1491	1187
1470	1189
1469	1191
1493	1195
1515	1197
1513	1200
1508	1202
1505	1205
1495	1207
1486	1209
1489	1212
1493	1214
1487	1217
1465	1219
1452	1221
1480	1224
1510	1226
1532	1229
1535	1231
1535	1233
1510	1236
1491	1239
1499	1242
1509	1244
1482	1246
1464	1249
1476	1251
1497	1254
1514	1256
1530	1258
1522	1261
1497	1263
1479	1266
1480	1268
1510	1270
1519	1273
1521	1275
1512	1278
1508	1281
1501	1283
1500	1286
1488	1288
1465	1291
1445	1293
1440	1296
1459	1298
1464	1300
1467	1303
1462	1305
1458	1308
1501	1310
1539	1312
1556	1315
1577	1317
1557	1320
1512	1323
1483	1325
1472	1328
1464	1330
1452	1333
1448	1335
1459	1337
1473	1340
1468	1342
1457	1345
1476	1347
1535	1349
1549	1352
1527	1354
1524	1357
1517	1359
1512	1361
1488	1364
1465	1367
1454	1370
1453	1372
1474	1374
1483	1377
1499	1379
1515	1382
1529	1384
1504	1386
1480	1389
1492	1391
1511	1394
1519	1396
1512	1399
1492	1401
1490	1403
1509	1406
1510	1409
1489	1412
1476	1414
1485	1416
1485	1419
1479	1421
1478	1424
1486	1426
1490	1428
1492	1431
1499	1433
1501	1436
1519	1438
1509	1440
1482	1443
1506	1445
1564	1448
1584	1451
1559	1453
1504	1456
1477	1458
1466	1461
1499	1463
1518	1465
1507	1468
1490	1470
1463	1473
1450	1475
1445	1477
1472	1480
1482	1482
1472	1485
1474	1487
1488	1490
1500	1492
1551	1495
1552	1498
1533	1500
1510	1503
1494	1505
1475	1507
1458	1510
1460	1512
1496	1515
1509	1517
1502	1519
1498	1522
1511	1524
1519	1527
1517	1529
1499	1531
1486	1534
1496	1537
1517	1540
1522	1542
1485	1544
1460	1547
1438	1549
1434	1552
1450	1554
1476	1556
1487	1559
1485	1561
1479	1564
1469	1566
1495	1568
1496	1571
1482	1573
1487	1576
1530	1579
1552	1582
1543	1584
1520	1586
1485	1589
1484	1591
1494	1594
1494	1596
1501	1598
1492	1601
1489	1603
1497	1606
1547	1608
1560	1610
1578	1613
1577	1615
1537	1618
1518	1620
1534	1623
1534	1626
1504	1628
1501	1631
1501	1633
1480	1635
1464	1638
1491	1640
1489	1643
1473	1645
1467	1647
1461	1650
1455	1652
1457	1655
1468	1657
1461	1659
1465	1662
1473	1665
1474	1668
1462	1670
1454	1673
1466	1675
1489	1677
1515	1680
1540	1682
1520	1685
1512	1687
1498	1689
1499	1692
1514	1694
1545	1697
1547	1699
1541	1701
1524	1704
1501	1707
1510	1710
1529	1712
1525	1714
1525	1717
1505	1719
1484	1722
1463	1724
1448	1726
1428	1729
1422	1731
1433	1734
1451	1736
1459	1738
1471	1741
1519	1743
1528	1746
1519	1748
1512	1751
1509	1754
1522	1756
1517	1759
1532	1761
1556	1764
1561	1766
1554	1768
1533	1771
1546	1773
1545	1776
1528	1778
1502	1780
1485	1783
1478	1785
1466	1788
1445	1790
1429	1793
1429	1796
1448	1798
1454	1801
1448	1803
1456	1805
1475	1808
1466	1810
1466	1813
1473	1815
1482	1817
1472	1820
1478	1822
1491	1825
1486	1827
1470	1829
1466	1832
1489	1835
1507	1838
1508	1840
1495	1842
1465	1845
1456	1847
1473	1850
1475	1852
1466	1854
1469	1857
1497	1859
1511	1862
1510	1864
1507	1867
1516	1869
1510	1871
1486	1874
1487	1876
1516	1880
1548	1882
1545	1884
1510	1887
1472	1889
1462	1892
1469	1894
1462	1896
1443	1899
1444	1901
1449	1904
1475	1906
1496	1908
1493	1911
1480	1913
1476	1916
1506	1918
1535	1921
1519	1924
1517	1926
1524	1929
1514	1931
1480	1933
1472	1936
1505	1938
1514	1941
1497	1943
1481	1945
1465	1948
1467	1950
1532	1953
1540	1955
1505	1958
1474	1960
1481	1963
1514	1966
1519	1968
1483	1971
1464	1973
1452	1975
1471	1978
1477	1980
1477	1983
1474	1985
1465	1987
1445	1990
1440	1992
1452	1995
1457	1997
1475	1999
1480	2002
1468	2004
1471	2008
1490	2010
1479	2012
1465	2015
1467	2017
1482	2020
1495	2022
1489	2024
1479	2027
1484	2029
1498	2032
1498	2034
1486	2036
1511	2039
1528	2041
1523	2044
1522	2046
1517	2049
1507	2052
1493	2054
1490	2057
1511	2059
1529	2062
1512	2064
1463	2066
1451	2069
1459	2071
1448	2074
1442	2076
1463	2078
1466	2081
1465	2083
1478	2086
1487	2088
1501	2091
1525	2094
1527	2096
1529	2099
1515	2101
1489	2103
1465	2106
1471	2108
1474	2111
1471	2113
1466	2115
1486	2118
1494	2120
1502	2123
1494	2125
1500	2127
1498	2130
1499	2132
1488	2136
1470	2138
1474	2140
1502	2143
1492	2145
1466	2148
1463	2150
1458	2153
1467	2155
1485	2157
1492	2160
1495	2162
1482	2165
1487	2167
1528	2169
1532	2172
1502	2174
1473	2178
1451	2180
1435	2182
1429	2185
1427	2187
1424	2190
1425	2192
1435	2194
1462	2197
1480	2199
1481	2202
1476	2204
1492	2206
1553	2209
1564	2211
1527	2214
1475	2216
1446	2220
1455	2222
1466	2224
1489	2227
1502	2229
1484	2232
1473	2234
1492	2236
1499	2239
1472	2241
1462	2244
1461	2246
1453	2248
1442	2251
1446	2253
1494	2256
1505	2258
1503	2260
1509	2264
1500	2266
1504	2269
1503	2271
1499	2273
1476	2276
1467	2278
1449	2281
1429	2283
1422	2285
1432	2288
1463	2290
1477	2293
1471	2295
1464	2297
1465	2300
1470	2302
1490	2306
1487	2308
1471	2310
1488	2313
1503	2315
1487	2318
1470	2320
1494	2323
1534	2325
1533	2327
1504	2330
1481	2332
1470	2335
1459	2337
1458	2339
1462	2342
1471	2344
1486	2348
1489	2350
1476	2352
1459	2355
1459	2357
1464	2360
1484	2362
1486	2364
1466	2367
1444	2369
1437	2372
1450	2374
1452	2376
1469	2379
1500	2381
1519	2384
1488	2386
1486	2390
1493	2392
1485	2394
1470	2397
1468	2399
1463	2402
1452	2404
1441	2406
1428	2409
1450	2411
1472	2414
1477	2416
1479	2418
1461	2421
1441	2423
1434	2426
1441	2428
1467	2430
1534	2434
1555	2436
1522	2439
1494	2441
1489	2443
1481	2446
1478	2448
1459	2451
1454	2453
1451	2455
1452	2458
1448	2460
1447	2463
1443	2465
1448	2467
1444	2470
1441	2472
1482	2476
1509	2478
1490	2481
1464	2483
1437	2485
1437	2488
1443	2490
1442	2493
1440	2495
1461	2497
1470	2500
1452	2502
1434	2505
1434	2507
1452	2509
1479	2512
1491	2514
1498	2518
1504	2520
1532	2522
1550	2525
1516	2527
1459	2530
1437	2532
1426	2534
1449	2537
1479	2539
1478	2542
1483	2544
1481	2546
1457	2549
1427	2551
1422	2554
1452	2556
1483	2560
1508	2562
1492	2564
1479	2567
1449	2569
1440	2572
1430	2574
1436	2576
1436	2579
1427	2581
1410	2584
1385	2586
1379	2588
1397	2591
1443	2593
1471	2596
1456	2598
1417	2600
1426	2604
1450	2606
1452	2609
1434	2611
1417	2613
1415	2616
1428	2618
1438	2621
1448	2623
1446	2625
1440	2628
1433	2630
1464	2633
1475	2635
1451	2637
1424	2640
1431	2642
1459	2646
1480	2648
1480	2650
1474	2653
1457	2655
1432	2658
1435	2660
1446	2663
1448	2665
1439	2667
1472	2670
1479	2672
1464	2675
1427	2677
1409	2679
1398	2682
1399	2684
1412	2688
1430	2690
1447	2692
1456	2695
1445	2697
1421	2700
1400	2702
1413	2704
1457	2707
1457	2709
1429	2712
1409	2714
1422	2716
1443	2719
1452	2721
1437	2724
1402	2726
1391	2728
1429	2732
1452	2734
1445	2737
1413	2739
1388	2741
1389	2744
1425	2746
1453	2749
1445	2751
1433	2754
1441	2756
1463	2758
1458	2761
1432	2763
1412	2766
1417	2768
1429	2770
1437	2774
1429	2776
1403	2779
1400	2781
1433	2783
1450	2786
1442	2788
1411	2791
1404	2793
1442	2795
1449	2798
1449	2800
1458	2803
1459	2805
1446	2807
1421	2810
1409	2812
1432	2816
1451	2818
1435	2820
1410	2823
1399	2825
1407	2828
1412	2830
1405	2832
1411	2835
1438	2837
1467	2840
1457	2842
1424	2845
1413	2847
1410	2849
1409	2852
1404	2854
1399	2857
1410	2860
1428	2862
1429	2865
1424	2867
1457	2870
1479	2872
1487	2874
1488	2877
1489	2879
1476	2882
1440	2884
1409	2886
1391	2889
1383	2891
1405	2894
1435	2896
1430	2898
1451	2902
1480	2904
1473	2907
1465	2909
1468	2911
1442	2914
1414	2916
1387	2919
1379	2921
1401	2923
1420	2926
1414	2928
1424	2931
1432	2933
1427	2936
1423	2938
1425	2940
1420	2944
1411	2946
1395	2949
1400	2951
1409	2953
1399	2956
1382	2958
1378	2961
1394	2963
1423	2965
1495	2968
1518	2970
1481	2973
1437	2975
1410	2977
1396	2980
1397	2982
1396	2985
1405	2988
1413	2990
1434	2993
1450	2995
1439	2998
1440	3000
1464	3002
1466	3005
1454	3007
1461	3010
1459	3012
1442	3015
1426	3017
1419	3019
1423	3022
1438	3024
1432	3027
1432	3030
1431	3032
1453	3035
1480	3037
1472	3040
1444	3042
1446	3044
1461	3047
1464	3049
1455	3052
1424	3054
1408	3056
1394	3059
1413	3061
1422	3064
1431	3066
1440	3068
1463	3072
1467	3074
1465	3077
1454	3079
1432	3081
1416	3084
1414	3086
1412	3089
1405	3091
1400	3094
1397	3096
1393	3098
1424	3101
1465	3103
1492	3106
1497	3108
1469	3110
1439	3113
1474	3116
1513	3119
1508	3121
1475	3123
1434	3126
1406	3128
1389	3131
1399	3133
1434	3135
1459	3138
1472	3140
1453	3143
1432	3145
1425	3147
1410	3150
1414	3152
1430	3155
1455	3158
1454	3161
1438	3163
1414	3165
1399	3168
1402	3170
1415	3173
1434	3175
1505	3177
1557	3180
1519	3182
1474	3185
1428	3187
1451	3189
1466	3192
1452	3194
1431	3197
1429	3200
1429	3202
1424	3205
1414	3207
1413	3210
1431	3212
1445	3214
1436	3217
1416	3219
1406	3222
1415	3224
1435	3226
1444	3229
1431	3231
1439	3234
1458	3236
1453	3239
1446	3241
1476	3244
1489	3247
1477	3249
1446	3252
1424	3254
1405	3256
1403	3259
1420	3261
1427	3264
1438	3266
1467	3268
1484	3271
1480	3273
1461	3276
1428	3278
1412	3280
1409	3283
1413	3286
1415	3289
1455	3291
1479	3293
1511	3296
1528	3298
1514	3301
1480	3303
1466	3305
1458	3308
1451	3310
1443	3313
1426	3315
1430	3317
1467	3320
1497	3322
1493	3325
1477	3328
1488	3330
1508	3333
1495	3335
1457	3338
1434	3340
1425	3343
1432	3345
1441	3347
1437	3350
1433	3352
1434	3355
1433	3357
1496	3359
1518	3362
1500	3364
1460	3367
1436	3369
1429	3372
1439	3375
1441	3377
1446	3380
1447	3382
1445	3384
1443	3387
1439	3389
1431	3392
1429	3394
1432	3396
1480	3399
1511	3401
1512	3404
1494	3406
1483	3408
1504	3411
1498	3414
1485	3417
1468	3419
1472	3421
1476	3424
1484	3426
1486	3429
1476	3431
1486	3434
1504	3436
1494	3438
1469	3441
1451	3443
1450	3446
1476	3448
1489	3450
1479	3453
1465	3456
1465	3459
1507	3461
1532	3463
1522	3466
1491	3468
1492	3471
1492	3473
1478	3475
1455	3478
1444	3480
1462	3483
1503	3485
1496	3487
1478	3490
1478	3492
1488	3495
1494	3497
1478	3500
1476	3503
1495	3505
1516	3508
1500	3510
1470	3513
1452	3515
1460	3517
1477	3520
1488	3522
1512	3525
1528	3527
1523	3529
1508	3532
1485	3534
1460	3537
1477	3539
1517	3542
1520	3545
1496	3547
1463	3550
1441	3552
1432	3554
1445	3557
1474	3559
1481	3562
1474	3564
1478	3566
1481	3569
1471	3571
1513	3574
1572	3576
1564	3578
1530	3581
1490	3584
1480	3587
1488	3589
1525	3592
1518	3594
1504	3596
1485	3599
1509	3601
1521	3604
1517	3606
1536	3608
1543	3611
1532	3613
1505	3616
1520	3618
1536	3620
1503	3623
1461	3625
1442	3629
1464	3631
1481	3633
1484	3636
1477	3638
1466	3641
1461	3643
1487	3645
1548	3648
1559	3650
1534	3653
1510	3655
1488	3657
1479	3660
1472	3662
1469	3665
1470	3667
1505	3670
1540	3673
1575	3675
1551	3678
1516	3680
1498	3683
1497	3685
1514	3687
1518	3690
1518	3692
1537	3695
1547	3697
1542	3699
1529	3702
1529	3704
1525	3707
1509	3709
1490	3712
1482	3715
1510	3717
1530	3720
1534	3722
1520	3724
1491	3727
1493	3729
1491	3732
1492	3734
1483	3736
1509	3739
1543	3741
1540	3744
1517	3746
1499	3749
1476	3751
1459	3753
1462	3757
1481	3759
1510	3762
1523	3764
1521	3766
1518	3769
1524	3771
1548	3774
1542	3776
1543	3778
1521	3781
1496	3783
1496	3786
1499	3788
1493	3790
1531	3793
1538	3795
1518	3799
1526	3801
1532	3803
1526	3806
1517	3808
1503	3811
1493	3813
1495	3816
1534	3818
1558	3820
1535	3823
1504	3825
1489	3828
1486	3830
1500	3832
1522	3835
1523	3837
1507	3841
1507	3843
1526	3845
1543	3848
1526	3850
1505	3853
1489	3855
1484	3857
1484	3860
1513	3862
1523	3865
1543	3867
1547	3869
1553	3872
1573	3874
1571	3877
1562	3879
1545	3881
1526	3885
1511	3887
1497	3890
1485	3892
1509	3895
1502	3897
1496	3899
1505	3902
1533	3904
1568	3907
1550	3909
1516	3911
1504	3914
1505	3916
1530	3919
1527	3921
1506	3923
1480	3927
1471	3929
1476	3932
1488	3934
1506	3936
1502	3939
1493	3941
1514	3944
1561	3946
1598	3948
1575	3951
1557	3953
1554	3956
1533	3958
1504	3960
1502	3963
1500	3965
1488	3969
1477	3971
1477	3973
1508	3976
1525	3978
1512	3981
1517	3983
1532	3986
1554	3988
1540	3990
1520	3993
1515	3995
1534	3998
1548	4000
1535	4002
1525	4005
1520	4007
1510	4011
1494	4013
1490	4015
1488	4018
1484	4020
1478	4023
1480	4025
1526	4027
1553	4030
1558	4032
1556	4035
1531	4037
1514	4039
1510	4042
1512	4044
1511	4047
1522	4049
1521	4052
1511	4055
1515	4057
1521	4060
1524	4062
1523	4065
1544	4067
1564	4069
1575	4072
1571	4074
1551	4077
1533	4079
1532	4081
1546	4084
1564	4086
1550	4089
1526	4091
1508	4093
1543	4097
1562	4099
1557	4102
1541	4104
1526	4106
1539	4109
1539	4111
1529	4114
1510	4116
1498	4118
1489	4121
1504	4123
1524	4126
1526	4128
1538	4130
1564	4133
1574	4135
1571	4139
1544	4141
1517	4144
1482	4146
1469	4148
1456	4151
1467	4153
1480	4156
1489	4158
1508	4160
1529	4163
1559	4165
1567	4168
1557	4170
1530	4172
1539	4175
1565	4177
1551	4180
1518	4183
1492	4185
1507	4188
1527	4190
1545	4193
1564	4195
1545	4197
1526	4200
1517	4202
1509	4205
1496	4207
1502	4209
1514	4212
1509	4214
1507	4217
1507	4219
1523	4222
1531	4225
1533	4227
1523	4230
1507	4232
1502	4235
1535	4237
1560	4239
1558	4242
1556	4244
1544	4247
1557	4249
1586	4251
1590	4254
1575	4256
1563	4259
1551	4261
1536	4263
1518	4267
1513	4269
1514	4272
1512	4274
1512	4276
1520	4279
1534	4281
1557	4284
1547	4286
1529	4289
1525	4291
1539	4293
1565	4296
1557	4298
1527	4301
1505	4303
1504	4305
1519	4308
1508	4311
1518	4314
1529	4316
1531	4318
1535	4321
1561	4323
1587	4326
1570	4328
1543	4330
1521	4333
1512	4335
1521	4338
1561	4340
1567	4342
1550	4345
1548	4347
1553	4350
1554	4353
1561	4355
1547	4358
1519	4360
1492	4363
1486	4365
1504	4368
1510	4370
1535	4372
1542	4375
1547	4377
1551	4380
1538	4382
1516	4384
1498	4387
1509	4389
1507	4392
1502	4395
1502	4397
1492	4400
1505	4402
1518	4405
1516	4407
1503	4409
1536	4412
1572	4414
1558	4417
1536	4419
1553	4421
1557	4424
1547	4426
1531	4429
1519	4431
1522	4434
1596	4436
1610	4439
1582	4442
1552	4444
1553	4447
1577	4449
1572	4451
1556	4454
1537	4456
1517	4459
1495	4461
1483	4463
1494	4466
1556	4468
1578	4471
1581	4473
1545	4475
1507	4478
1494	4481
1486	4484
1480	4486
1475	4488
1492	4491
1533	4493
1565	4496
1565	4498
1543	4500
1519	4503
1517	4505
1521	4508
1527	4510
1540	4513
1542	4515
1529	4517
1516	4520
1508	4523
1498	4526
1501	4528
1503	4530
1499	4533
1503	4535
1540	4538
1602	4540
1592	4542
1564	4545
1549	4547
1547	4550
1548	4552
1544	4554
1525	4557
1501	4559
1494	4562
1489	4564
1491	4567
1536	4570
1622	4572
1646	4575
1622	4577
1577	4579
1543	4582
1524	4584
1514	4587
1522	4589
1523	4592
1519	4594
1514	4596
1504	4599
1506	4601
1516	4604
1523	4606
1551	4609
1555	4612
1551	4614
1546	4617
1552	4619
1553	4621
1540	4624
1548	4626
1551	4629
1565	4631
1624	4633
1621	4636
1594	4638
1553	4641
1525	4643
1504	4645
1495	4648
1504	4651
1506	4654
1504	4656
1499	4659
1500	4661
1516	4663
1535	4666
1545	4668
1533	4671
1515	4673
1501	4675
1499	4678
1510	4680
1515	4683
1512	4685
1523	4687
1545	4690
1566	4692
1569	4696
1545	4698
1533	4700
1529	4703
1532	4705
1552	4708
1552	4710
1541	4712
1535	4715
1541	4717
1558	4720
1557	4722
1549	4724
1544	4727
1559	4729
1578	4732
1567	4734
1556	4738
1538	4740
1534	4742
1531	4745
1554	4747
1566	4750
1558	4752
1548	4754
1547	4757
1545	4759
1535	4762
1529	4764
1549	4766
1608	4769
1643	4771
1606	4774
1553	4776
1524	4779
1543	4782
1567	4784
1560	4787
1542	4789
1540	4792
1546	4794
1554	4796
1536	4799
1522	4801
1511	4804
1511	4806
1513	4808
1525	4811
1554	4813
1558	4816
1569	4818
1567	4820
1563	4824
1554	4826
1555	4829
1559	4831
1545	4833
1569	4836
1574	4838
1580	4841
1574	4843
1549	4845
1520	4848
1511	4850
1525	4853
1531	4855
1530	4857
1544	4860
1548	4862
1537	4866
1529	4868
1534	4870
1546	4873
1574	4875
1587	4878
1571	4880
1540	4883
1516	4885
1495	4887
1487	4890
1486	4892
1484	4895
1499	4897
1511	4899
1514	4902
1518	4904
1533	4908
1564	4910
1587	4912
1576	4915
1576	4917
1583	4920
1577	4922
1556	4924
1558	4927
1556	4929
1545	4932
1535	4934
1523	4936
1517	4939
1560	4941
1574	4944
1562	4946
1548	4950
1533	4952
1530	4954
1539	4957
1534	4959
1566	4962
1579	4964
1583	4966
1560	4969
1528	4971
1517	4974
1514	4976
1502	4978
1495	4981
1495	4983
1501	4986
1508	4988
1509	4990
1535	4994
1546	4996
1532	4999
1517	5001
1499	5003
1520	5006
1562	5008
1570	5011
1559	5013
1545	5015
1536	5018
1529	5020
1535	5023
1560	5025
1572	5028
1552	5030
1553	5032
1565	5036
1556	5038
1542	5041
1514	5043
1494	5045
1483	5048
1487	5050
1483	5053
1469	5055
1460	5057
1457	5060
1495	5062
1518	5065
1528	5067
1524	5069
1513	5072
1503	5074
1504	5078
1506	5080
1507	5082
1515	5085
1530	5087
1527	5090
1527	5092
1514	5095
1499	5097
1498	5099
1530	5102
1541	5104
1546	5107
1532	5109
1511	5111
1504	5114
1516	5116
1523	5120
1519	5122
1547	5124
1572	5127
1570	5129
1550	5132
1522	5134
1508	5136
1518	5139
1551	5141
1548	5144
1534	5146
1541	5148
1556	5151
1561	5153
1548	5156
1533	5158
1539	5161
1543	5164
1529	5166
1542	5169
1547	5171
1539	5174
1520	5176
1520	5178
1552	5181
1551	5183
1528	5186
1506	5188
1493	5190
1494	5193
1514	5195
1535	5198
1548	5200
1541	5202
1523	5206
1519	5208
1518	5211
1509	5213
1528	5215
1545	5218
1542	5220
1582	5223
1616	5225
1609	5227
1588	5230
1587	5232
1596	5235
1574	5237
1540	5239
1512	5242
1510	5244
1524	5248
1541	5250
1529	5253
1512	5255
1522	5257
1547	5260
1596	5262
1579	5265
1540	5267
1502	5269
1484	5272
1464	5274
1461	5277
1476	5279
1481	5281
1505	5284
1540	5286
1558	5289
1559	5292
1551	5294
1537	5297
1534	5299
1529	5302
1514	5304
1494	5306
1477	5309
1476	5311
1480	5314
1507	5316
1507	5318
1498	5321
1495	5323
1504	5326
1524	5328
1541	5331
1533	5334
1521	5336
1504	5339
1495	5341
1556	5344
1587	5346
1569	5348
1541	5351
1507	5353
1513	5356
1524	5358
1528	5360
1516	5363
1501	5365
1502	5368
1493	5370
1489	5372
1485	5376
1492	5378
1507	5381
1526	5383
1530	5385
1530	5388
1524	5390
1521	5393
1513	5395
1510	5398
1504	5400
1496	5402
1485	5405
1480	5407
1506	5410
1533	5412
1556	5414
1568	5417
1556	5420
1545	5423
1539	5425
1533	5427
1537	5430
1542	5432
1524	5435
1503	5437
1488	5439
1492	5442
1562	5444
1626	5447
1614	5449
1571	5451
1523	5454
1549	5456
1556	5459
1527	5462
1503	5464
1514	5467
1539	5469
1545	5472
1521	5474
1492	5477
1479	5479
1479	5481
1488	5484
1543	5486
1562	5489
1542	5491
1503	5493
1494	5496
1515	5498
1511	5501
1511	5504
1530	5506
1529	5509
1505	5511
1487	5514
1476	5516
1476	5518
1499	5521
1525	5523
1530	5526
1535	5528
1547	5530
1536	5533
1505	5535
1491	5538
1480	5540
1472	5542
1467	5545
1461	5548
1459	5551
1470	5553
1497	5556
1510	5558
1554	5560
1574	5563
1589	5565
1585	5568
1557	5570
1521	5572
1499	5575
1490	5577
1491	5580
1504	5582
1514	5584
1505	5587
1491	5590
1481	5593
1490	5595
1513	5597
1521	5600
1511	5602
1507	5605
1533	5607
1561	5609
1567	5612
1542	5614
1509	5617
1510	5619
1517	5622
1517	5624
1501	5626
1477	5629
1468	5632
1472	5635
1474	5637
1476	5639
1484	5642
1511	5644
1536	5647
1548	5649
1550	5651
1587	5654
1587	5656
1561	5659
1538	5661
1547	5663
1551	5666
1553	5668
1539	5671
1523	5673
1522	5676
1509	5679
1488	5681
1489	5684
1496	5686
1504	5688
1525	5691
1519	5693
1502	5696
1491	5698
1493	5701
1545	5703
1561	5705
1545	5708
1527	5710
1505	5713
1524	5715
1540	5718
1521	5721
1496	5723
1490	5726
1487	5728
1483	5730
1487	5733
1504	5735
1507	5738
1518	5740
1523	5742
1538	5745
1548	5747
1544	5750
1527	5752
1503	5754
1487	5757
1493	5760
1504	5763
1507	5765
1524	5768
1510	5770
1493	5772
1501	5775
1505	5777
1495	5780
1499	5782
1510	5784
1554	5787
1566	5789
1544	5792
1518	5794
1514	5796
1514	5799
1505	5801
1491	5805
1488	5807
1489	5809
1489	5812
1496	5814
1514	5817
1557	5819
1574	5821
1586	5824
1570	5826
1538	5829
1521	5831
1518	5833
1527	5836
1514	5838
1499	5841
1499	5843
1522	5847
1546	5849
1542	5851
1521	5854
1495	5856
1478	5859
1486	5861
1494	5863
1488	5866
1480	5868
1485	5871
1499	5873
1514	5875
1525	5878
1516	5880
1502	5883
1537	5885
1548	5888
1531	5891
1518	5893
1508	5896
1535	5898
1594	5900
1600	5903
1564	5905
1512	5908
1492	5910
1504	5912
1517	5915
1521	5917
1514	5920
1496	5922
1497	5925
1507	5927
1509	5929
1508	5933
1508	5935
1534	5938
1548	5940
1536	5942
1522	5945
1509	5947
1494	5950
1487	5952
1506	5954
1509	5957
1502	5959
1500	5962
1536	5964
1576	5966
1564	5969
1526	5971
1485	5975
1492	5977
1497	5979
1486	5982
1490	5984
1524	5987
1531	5989
1516	5992
1541	5994
1560	5996
1561	5999
1571	6001
1550	6004
1522	6006
1520	6008
1521	6011
1533	6013
1544	6017
1525	6019
1508	6021
1501	6024
1520	6026
1503	6029
1478	6031
1472	6033
1488	6036
1496	6038
1489	6041
1493	6043
1526	6045
1541	6048
1521	6050
1510	6053
1510	6055
1494	6057
1478	6061
1478	6063
1473	6066
1502	6068
1530	6071
1532	6073
1527	6075
1503	6078
1498	6080
1504	6083
1522	6085
1546	6087
1550	6090
1520	6092
1488	6095
1471	6097
1460	6099
1468	6103
1472	6105
1470	6108
1482	6110
1483	6112
1491	6115
1511	6117
1525	6120
1515	6122
1517	6124
1587	6127
1595	6129
1554	6132
1512	6134
1509	6137
1525	6139
1512	6141
1490	6145
1491	6147
1507	6150
1542	6152
1560	6154
1539	6157
1517	6159
1514	6162
1526	6164
1555	6166
1564	6169
1555	6171
1559	6174
1550	6176
1519	6178
1487	6181
1474	6183
1483	6187
1486	6189
1476	6191
1487	6194
1495	6196
1500	6199
1560	6201
1593	6204
1571	6206
1513	6208
1479	6211
1460	6213
1462	6216
1476	6218
1494	6220
1502	6223
1504	6225
1507	6228
1510	6231
1488	6233
1467	6236
1474	6238
1500	6241
1503	6243
1499	6245
1523	6248
1509	6250
1495	6253
1510	6255
1526	6257
1508	6260
1477	6262
1472	6265
1476	6267
1483	6270
1488	6273
1495	6275
1510	6278
1503	6280
1493	6283
1483	6285
1494	6287
1522	6290
1529	6292
1523	6295
1509	6297
1492	6299
1483	6302
1486	6304
1485	6307
1474	6309
1462	6311
1487	6315
1546	6317
1548	6320
1526	6322
1491	6324
1480	6327
1478	6329
1491	6332
1552	6334
1558	6336
1526	6339
1502	6341
1509	6344
1528	6346
1542	6349
1536	6351
1518	6353
1507	6356
1499	6359
1498	6362
1527	6364
1541	6366
1520	6369
1518	6371
1511	6374
1493	6376
1489	6378
1484	6381
1482	6383
1487	6386
1547	6388
1579	6390
1554	6393
1518	6395
1505	6398
1507	6401
1507	6403
1502	6406
1491	6408
1484	6411
1501	6413
1510	6416
1559	6418
1569	6420
1549	6423
1533	6425
1548	6428
1526	6430
1490	6432
1483	6435
1480	6437
1476	6440
1455	6443
1439	6445
1436	6448
1463	6450
1482	6453
1480	6455
1471	6457
1469	6460
1479	6462
1517	6465
1555	6467
1534	6469
1506	6472
1504	6474
1496	6477
1495	6479
1507	6481
1502	6484
1492	6487
1503	6490
1521	6492
1515	6494
1519	6497
1529	6499
1516	6502
1507	6504
1505	6506
1492	6509
1491	6511
1508	6514
1501	6516
1494	6519
1498	6521
1508	6523
1525	6526
1537	6529
1521	6532
1516	6534
1504	6536
1481	6539
1480	6541
1492	6544
1476	6546
1459	6548
1471	6551
1497	6553
1518	6556
1513	6558
1526	6560
1550	6563
1561	6565
1560	6568
1530	6571
1502	6573
1513	6576
1522	6578
1509	6581
1509	6583
1523	6585
1540	6588
1551	6590
1543	6593
1515	6595
1524	6598
1559	6600
1542	6602
1500	6605
1495	6607
1472	6610
1454	6612
1439	6615
1443	6618
1438	6620
1473	6623
1494	6625
1486	6627
1479	6630
1474	6632
1457	6635
1443	6637
1463	6639
1547	6642
1560	6644
1520	6647
1496	6649
1505	6651
1525	6654
1506	6657
1474	6660
1469	6662
1488	6664
1505	6667
1537	6669
1594	6672
1575	6674
1510	6676
1469	6679
1467	6681
1471	6684
1488	6686
1516	6689
1550	6691
1546	6693
1541	6696
1544	6699
1527	6702
1504	6704
1486	6706
1494	6709
1483	6711
1470	6714
1456	6716
1479	6718
1490	6721
1477	6723
1473	6726
1482	6728
1506	6730
1536	6733
1523	6735
1506	6738
1501	6740
1507	6743
1505	6746
1505	6748
1526	6751
1515	6753
1509	6755
1501	6758
1502	6760
1494	6763
1487	6765
1488	6768
1480	6770
1469	6772
1481	6775
1522	6777
1545	6780
1532	6782
1519	6785
1515	6788
1535	6790
1542	6793
1522	6795
1488	6797
1445	6800
1411	6802
1448	6805
1484	6807
1473	6809
1455	6812
1449	6814
1437	6817
1428	6819
1420	6821
1427	6824
1432	6827
1442	6830
1467	6832
1503	6834
1520	6837
1500	6839
1464	6842
1476	6844
1539	6846
1539	6849
1497	6851
1456	6854
1474	6856
1498	6859
1527	6861
1519	6863
1476	6866
1447	6868
1441	6872
1454	6874
1464	6876
1456	6879
1451	6881
1465	6884
1506	6886
1516	6888
1549	6891
1548	6893
1518	6896
1486	6898
1497	6900
1499	6903
1496	6905
1515	6908
1534	6910
1531	6913
1520	6916
1522	6918
1511	6921
1500	6923
1497	6925
1520	6928
1527	6930
1523	6933
1539	6935
1521	6938
1488	6940
1459	6942
1473	6945
1497	6947
1515	6950
1505	6952
1473	6955
1456	6958
1472	6960
1505	6963
1543	6965
1541	6967
1520	6970
1504	6972
1478	6975
1474	6977
1473	6979
1463	6982
1470	6984
1471	6987
1466	6989
1482	6991
1512	6994
1521	6996
1508	7000
1549	7002
1572	7004
1540	7007
1503	7009
1478	7012
1454	7014
1467	7017
1489	7019
1492	7021
1486	7024
1485	7026
1485	7029
1516	7031
1524	7033
1509	7036
1504	7038
1511	7042
1484	7044
1454	7046
1439	7049
1438	7051
1434	7054
1429	7056
1431	7058
1435	7061
1447	7063
1482	7066
1528	7068
1575	7070
1601	7073
1607	7075
1562	7078
1500	7080
1462	7084
1448	7086
1458	7088
1469	7091
1473	7093
1468	7096
1497	7098
1509	7100
1491	7103
1462	7105
1445	7108
1451	7110
1494	7112
1543	7115
1552	7117
1527	7120
1550	7122
1566	7124
1544	7128
1499	7130
1470	7133
1453	7135
1456	7137
1474	7140
1466	7142
1457	7145
1471	7147
1483	7150
1503	7152
1510	7154
1518	7157
1549	7159
1593	7162
1557	7164
1525	7166
1536	7170
1547	7172
1527	7175
1485	7177
1483	7179
1496	7182
1492	7184
1461	7187
1444	7189
1462	7191
1524	7194
1551	7196
1521	7199
1487	7201
1463	7203
1473	7206
1484	7208
1483	7212
1463	7214
1435	7217
1419	7219
1414	7221
1425	7224
1475	7226
1493	7229
1503	7231
1510	7233
1549	7236
1595	7238
1572	7241
1537	7243
1524	7245
1492	7248
1462	7250
1459	7254
1468	7256
1474	7258
1498	7261
1507	7263
1504	7266
1497	7268
1505	7270
1504	7273
1517	7275
1504	7278
1502	7280
1496	7282
1511	7285
1521	7287
1511	7290
1502	7292
1477	7296
1479	7298
1493	7300
1523	7303
1525	7305
1514	7308
1484	7310
1453	7312
1441	7315
1446	7317
1458	7320
1464	7322
1449	7324
1458	7327
1517	7329
1537	7332
1513	7334
1524	7336
1561	7340
1548	7342
1502	7345
1472	7347
1461	7349
1451	7352
1460	7354
1472	7357
1475	7359
1457	7362
1442	7364
1470	7366
1476	7369
1463	7371
1456	7374
1484	7376
1550	7378
1561	7382
1524	7384
1475	7387
1459	7389
1457	7391
1507	7394
1547	7396
1521	7399
1508	7401
1515	7403
1502	7406
1513	7408
1517	7411
1521	7413
1513	7415
1494	7418
1472	7420
1469	7424
1468	7426
1473	7429
1480	7431
1554	7433
1570	7436
1532	7438
1511	7441
1490	7443
1495	7445
1469	7448
1448	7450
1469	7453
1496	7455
1511	7457
1496	7460
1474	7462
1451	7465
1445	7468
1482	7470
1528	7473
1561	7475
1550	7478
1501	7480
1490	7482
1525	7485
1539	7487
1515	7490
1479	7492
1462	7494
1474	7497
1475	7499
1476	7502
1462	7504
1454	7507
1523	7510
1607	7512
1603	7515
1567	7517
1500	7520
1441	7522
1460	7524
1506	7527
1507	7529
1468	7532
1430	7534
1418	7536
1435	7539
1434	7541
1443	7544
1464	7546
1483	7548
1485	7552
1465	7554
1454	7557
1444	7559
1427	7561
1418	7564
1412	7566
1409	7569
1425	7571
1448	7574
1463	7576
1459	7578
1464	7581
1492	7583
1525	7586
1547	7588
1542	7590
1501	7593
1470	7596
1447	7599
1444	7601
1450	7603
1482	7606
1485	7608
1466	7611
1460	7613
1472	7615
1502	7618
1535	7620
1554	7623
1529	7625
1504	7627
1487	7630
1507	7632
1510	7635
1493	7638
1476	7641
1463	7643
1455	7645
1460	7648
1479	7650
1521	7653
1524	7655
1572	7657
1577	7660
1552	7662
1512	7665
1469	7667
1442	7669
1443	7672
1463	7674
1478	7677
1491	7680
1530	7682
1563	7685
1563	7687
1540	7690
1490	7692
1464	7694
1447	7697
1438	7699
1464	7702
1479	7704
1486	7707
1484	7709
1483	7711
1485	7714
1483	7716
1512	7719
1513	7721
1499	7724
1493	7727
1512	7729
1513	7732
1479	7734
1462	7736
1459	7739
1471	7741
1488	7744
1475	7746
1468	7748
1484	7751
1513	7753
1499	7756
1459	7758
1430	7760
1443	7763
1494	7766
1490	7769
1466	7771
1444	7773
1425	7776
1418	7778
1424	7781
1426	7783
1446	7786
1481	7788
1513	7790
1563	7793
1567	7795
1545	7798
1515	7800
1485	7802
1464	7805
1476	7808
1476	7811
1467	7813
1453	7815
1493	7818
1549	7820
1531	7823
1501	7825
1513	7827
1513	7830
1482	7832
1465	7835
1449	7837
1438	7839
1442	7842
1465	7844
1464	7847
1457	7849
1480	7852
1505	7855
1504	7857
1479	7860
1456	7862
1427	7865
1424	7867
1446	7869
1467	7872
1469	7874
1471	7877
1483	7879
1471	7881
1449	7884
1487	7886
1502	7889
1511	7891
1493	7894
1468	7897
1448	7899
1442	7902
1438	7904
1433	7906
1454	7909
1490	7911
1482	7914
1475	7916
1508	7918
1521	7921
1489	7923
1450	7926
1442	7928
1454	7931
1466	7933
1464	7936
1460	7939
1463	7941
1477	7944
1486	7946
1492	7948
1470	7951
1446	7953
1442	7956
1435	7958
1457	7960
1490	7963
1475	7965
1436	7968
1407	7970
1385	7972
1373	7975
1383	7977
1454	7981
1479	7983
1455	7985
1419	7988
1423	7990
1469	7993
1489	7995
1482	7998
1445	8000
1404	8002
1393	8005
1425	8007
1446	8010
1444	8012
1445	8014
1426	8017
1417	8019
1443	8023
1455	8025
1445	8027
1421	8030
1418	8032
1442	8035
1466	8037
1476	8039
1457	8042
1438	8044
1465	8047
1474	8049
1452	8051
1432	8054
1418	8056
1409	8059
1423	8061
1423	8064
1418	8067
1410	8069
1439	8072
1484	8074
1487	8076
1466	8079
1436	8081
1435	8084
1456	8086
1457	8089
1425	8091
1390	8093
1379	8096
1400	8098
1416	8101
1401	8103
1408	8105
1422	8109
1439	8111
1431	8114
1430	8116
1419	8118
1428	8121
1448	8123
1450	8126
1470	8128
1460	8130
1424	8133
1413	8135
1435	8138
1429	8140
1401	8142
1391	8145
1392	8147
1393	8151
1405	8153
1417	8155
1448	8158
1479	8160
1477	8163
1450	8165
1418	8167
1404	8170
1425	8172
1449	8175
1468	8177
1470	8180
1461	8182
1436	8184
1408	8187
1392	8189
1415	8193
1449	8195
1454	8197
1459	8200
1461	8202
1434	8205
1401	8207
1381	8209
1374	8212
1373	8214
1393	8217
1411	8219
1405	8221
1409	8224
1420	8226
1421	8229
1423	8231
1428	8233
1395	8237
1374	8239
1379	8242
1388	8244
1385	8246
1402	8249
1425	8251
1417	8254
1415	8256
1403	8258
1380	8261
1373	8263
1368	8266
1403	8268
1421	8271
1410	8273
1428	8275
1443	8279
1451	8281
1445	8284
1434	8286
1407	8288
1396	8291
1397	8293
1389	8296
1383	8298
1407	8300
1426	8303
1419	8305
1407	8308
1418	8310
1422	8312
1413	8315
1401	8317
1400	8321
1383	8323
1368	8325
1358	8328
1348	8330
1346	8333
1347	8335
1362	8337
1425	8340
1457	8342
1451	8345
1430	8347
1414	8350
1408	8352
1399	8354
1397	8357
1422	8359
1426	8363
1437	8365
1465	8367
1487	8370
1492	8372
1457	8375
1431	8377
1437	8379
1429	8382
1428	8384
1453	8387
1436	8389
1438	8391
1454	8394
1446	8396
1417	8399
1405	8401
1422	8403
1443	8407
1443	8409
1400	8412
1381	8414
1400	8416
1427	8419
1454	8421
1435	8424
1395	8426
1361	8429
1345	8431
1360	8433
1396	8436
1411	8438
1398	8441
1390	8443
1386	8445
1395	8449
1403	8451
1412	8454
1428	8456
1421	8458
1404	8461
1411	8463
1416	8466
1436	8468
1453	8470
1433	8473
1407	8475
1390	8478
1392	8480
1414	8482
1403	8485
1385	8487
1372	8491
1369	8493
1388	8495
1403	8498
1410	8500
1425	8503
1441	8505
1443	8508
1454	8510
1457	8512
1448	8515
1428	8517
1431	8520
1440	8522
1428	8524
1406	8527
1397	8529
1415	8532
1414	8535
1416	8537
1449	8540
1482	8542
1509	8545
1507	8547
1480	8549
1448	8552
1432	8554
1423	8557
1409	8559
1428	8561
1451	8564
1443	8566
1428	8569
1417	8571
1440	8574
1481	8577
1474	8579
1434	8582
1399	8584
1405	8587
1430	8589
1414	8591
1395	8594
1403	8596
1416	8599
1421	8601
1425	8603
1417	8606
1414	8608
1428	8611
1445	8613
1449	8615
1445	8619
1447	8621
1465	8624
1454	8626
1457	8628
1488	8631
1490	8633
1466	8636
1448	8638
1470	8641
1468	8643
1445	8645
1442	8648
1461	8650
1466	8653
1472	8655
1467	8657
1442	8660
1454	8663
1461	8666
1450	8668
1423	8670
1409	8673
1421	8675
1418	8678
1426	8680
1447	8682
1478	8685
1488	8687
1504	8690
1491	8692
1433	8694
1401	8697
1396	8699
1426	8702
1435	8705
1418	8707
1396	8710
1395	8712
1421	8715
1426	8717
1422	8720
1415	8722
1433	8724
1448	8727
1447	8729
1482	8732
1500	8734
1529	8736
1541	8739
1512	8741
1457	8744
1424	8747
1436	8749
1459	8752
1455	8754
1441	8757
1428	8759
1436	8761
1440	8764
1458	8766
1469	8769
1489	8771
1498	8773
1516	8776
1528	8778
1507	8781
1469	8783
1440	8786
1432	8788
1460	8791
1480	8794
1475	8796
1450	8799
1448	8801
1473	8803
1460	8806
1442	8808
1432	8811
1433	8813
1451	8815
1469	8818
1467	8820
1465	8823
1470	8825
1539	8827
1543	8830
1513	8833
1473	8836
1447	8838
1446	8840
1461	8843
1458	8845
1435	8848
1423	8850
1438	8852
1463	8855
1470	8857
1459	8860
1452	8862
1462	8865
1469	8867
1467	8869
1460	8872
1448	8875
1457	8878
1473	8880
1460	8882
1445	8885
1467	8887
1492	8890
1484	8892
1470	8894
1463	8897
1455	8899
1473	8902
1507	8904
1524	8906
1512	8909
1491	8911
1478	8914
1493	8916
1517	8919
1513	8922
1502	8924
1493	8927
1476	8929
1452	8931
1465	8934
1485	8936
1495	8939
1478	8941
1457	8944
1456	8946
1454	8948
1448	8951
1446	8953
1450	8956
1493	8958
1513	8961
1509	8964
1510	8966
1496	8969
1498	8971
1503	8973
1512	8976
1508	8978
1487	8981
1484	8983
1533	8985
1554	8988
1540	8990
1513	8993
1484	8995
1470	8997
1483	9000
1492	9003
1486	9006
1499	9008
1525	9010
1521	9013
1538	9015
1550	9018
1538	9020
1527	9023
1500	9025
1474	9027
1459	9030
1487	9032
1515	9035
1505	9037
1481	9039
1460	9042
1450	9044
1471	9048
1531	9050
1564	9052
1550	9055
1517	9057
1513	9060
1512	9062
1524	9064
1516	9067
1497	9069
1467	9072
1461	9074
1462	9076
1452	9079
1476	9081
1496	9084
1527	9086
1551	9089
1567	9092
1545	9094
1517	9097
1506	9099
1494	9102
1490	9104
1462	9106
1441	9109
1444	9111
1493	9114
1522	9116
1517	9118
1508	9121
1496	9123
1471	9126
1489	9128
1509	9131
1504	9134
1470	9136
1452	9139
1489	9141
1520	9143
1504	9146
1478	9148
1460	9151
1459	9153
1466	9156
1476	9158
1470	9160
1464	9163
1476	9165
1491	9168
1502	9170
1480	9172
1466	9176
1461	9178
1448	9181
1456	9183
1475	9185
1481	9188
1477	9190
1499	9193
1514	9195
1505	9197
1473	9200
1447	9202
1442	9205
1445	9207
1476	9209
1520	9212
1540	9214
1532	9218
1530	9220
1526	9222
1504	9225
1493	9227
1513	9230
1521	9232
1497	9235
1489	9237
1530	9239
1566	9242
1551	9244
1547	9247
1552	9249
1516	9251
1476	9254
1452	9256
1440	9260
1444	9262
1454	9264
1463	9267
1478	9269
1501	9272
1512	9274
1513	9276
1529	9279
1527	9281
1520	9284
1508	9286
1502	9289
1514	9291
1531	9293
1536	9296
1517	9298
1499	9302
1489	9304
1496	9306
1491	9309
1479	9311
1463	9314
1450	9316
1475	9318
1530	9321
1552	9323
1547	9326
1517	9328
1489	9330
1472	9333
1499	9335
1530	9338
1539	9340
1526	9342
1505	9346
1501	9348
1522	9351
1551	9353
1545	9355
1511	9358
1488	9360
1503	9363
1546	9365
1587	9368
1601	9370
1581	9372
1548	9375
1532	9377
1513	9380
1496	9382
1494	9384
1478	9388
1478	9390
1550	9393
1583	9395
1561	9397
1526	9400
1510	9402
1494	9405
1481	9407
1494	9409
1495	9412
1482	9414
1465	9417
1464	9419
1479	9421
1534	9424
1541	9426
1517	9430
1485	9432
1477	9435
1489	9437
1501	9439
1493	9442
1479	9444
1465	9447
1463	9449
1507	9451
1535	9454
1545	9456
1565	9459
1554	9461
1522	9463
1489	9466
1458	9468
1441	9472
1430	9474
1425	9476
1424	9479
1432	9481
1472	9484
1500	9486
1505	9488
1534	9491
1551	9493
1572	9496
1567	9498
1544	9501
1526	9503
1530	9505
1523	9508
1517	9510
1514	9513
1524	9516
1523	9518
1512	9521
1507	9523
1527	9526
1532	9528
1534	9530
1537	9533
1539	9535
1539	9538
1546	9540
1533	9542
1538	9545
1561	9547
1555	9550
1534	9552
1508	9554
1495	9558
1489	9560
1507	9563
1519	9565
1548	9568
1611	9570
1622	9572
1577	9575
1538	9577
1511	9580
1495	9582
1502	9584
1515	9587
1505	9589
1488	9592
1466	9594
1465	9596
1473	9600
1475	9602
1484	9605
1474	9607
1463	9609
1491	9612
1514	9614
1509	9617
1509	9619
1550	9621
1557	9624
1538	9626
1507	9629
1474	9631
1457	9634
1457	9636
1471	9638
1470	9641
1459	9644
1465	9647
1493	9649
1532	9651
1531	9654
1501	9656
1490	9659
1480	9661
1473	9663
1482	9666
1505	9668
1532	9671
1553	9673
1553	9675
1537	9678
1499	9680
1457	9683
1439	9686
1449	9688
1483	9691
1509	9693
1514	9696
1512	9698
1497	9700
1513	9703
1548	9705
1541	9708
1492	9710
1475	9713
1464	9715
1461	9717
1447	9720
1457	9722
1485	9725
1499	9728
1505	9730
1502	9733
1487	9735
1470	9738
1467	9740
1506	9742
1516	9745
1537	9747
1543	9750
1531	9752
1507	9754
1491	9757
1489	9759
1471	9762
1463	9764
1465	9766
1467	9769
1454	9772
1476	9775
1491	9777
1497	9780
1525	9782
1534	9784
1528	9787
1520	9789
1522	9792
1550	9794
1546	9796
1535	9799
1509	9801
1491	9804
1483	9806
1487	9808
1488	9811
1503	9814
1505	9817
1517	9819
1535	9821
1523	9824
1497	9826
1526	9829
1557	9831
1554	9833
1526	9836
1518	9838
1523	9841
1514	9843
1498	9846
1486	9848
1507	9850
1510	9853
1500	9856
1481	9859
1472	9861
1495	9863
1524	9866
1528	9868
1538	9871
1551	9873
1543	9875
1506	9878
1470	9880
1452	9883
1445	9885
1446	9887
1453	9890
1453	9892
1447	9895
1454	9897
1480	9900
1548	9903
1573	9905
1565	9908
1572	9910
1603	9913
1609	9915
1616	9917
1595	9920
1573	9922
1537	9925
1506	9927
1506	9929
1511	9932
1507	9934
1519	9937
1568	9939
1566	9942
1573	9945
1567	9947
1576	9950
1573	9952
1525	9954
1482	9957
1476	9959
1470	9962
1457	9964
1453	9966
1453	9969
1454	9971
1446	9974
1480	9976
1533	9978
1536	9981
1522	9984
1496	9987
1477	9989
1481	9992
1472	9994
1447	9996
1446	9999
1454	10001
1473	10004
1475	10006
1472	10009
1477	10011
1492	10013
1517	10016
1538	10018
1555	10021
1542	10023
1519	10027
1511	10029
1526	10032
1553	10034
1534	10037
1494	10039
1482	10041
1508	10044
1605	10046
1618	10049
1562	10051
1502	10054
1468	10056
1487	10059
1549	10061
1548	10064
1536	10066
1524	10068
1502	10072
1493	10074
1492	10077
1497	10079
1500	10082
1487	10084
1472	10087
1470	10089
1483	10092
1568	10094
1577	10097
1553	10099
1518	10101
1505	10104
1479	10106
1459	10109
1452	10112
1465	10115
1468	10117
1476	10120
1479	10122
1474	10125
1467	10127
1488	10129
1516	10132
1552	10134
1554	10137
1529	10139
1498	10142
1525	10144
1557	10147
1536	10149
1502	10152
1485	10155
1477	10158
1485	10160
1503	10162
1520	10165
1521	10167
1516	10170
1513	10172
1506	10175
1498	10177
1510	10180
1505	10182
1479	10185
1479	10187
1507	10189
1505	10192
1486	10194
1491	10198
1496	10200
1527	10203
1567	10205
1602	10208
1575	10210
1513	10213
1467	10215
1469	10217
1486	10220
1471	10222
1445	10225
1431	10227
1428	10230
1438	10232
1452	10235
1475	10237
1517	10241
1526	10243
1529	10245
1558	10248
1575	10250
1573	10253
1565	10255
1543	10258
1527	10260
1531	10263
1527	10265
1502	10268
1465	10270
1451	10273
1498	10275
1543	10277
1534	10280
1510	10283
1485	10286
1477	10288
1488	10291
1498	10293
1488	10296
1479	10298
1482	10301
1485	10303
1495	10305
1509	10308
1519	10310
1504	10313
1490	10315
1487	10318
1487	10320
1501	10323
1550	10326
1568	10329
1543	10331
1529	10333
1514	10336
1481	10338
1456	10341
1492	10343
1560	10346
1575	10348
1547	10351
1519	10353
1513	10356
1529	10358
1532	10361
1505	10363
1474	10365
1451	10369
1489	10371
1539	10374
1598	10376
1605	10379
1577	10381
1556	10384
1528	10386
1492	10389
1459	10391
1453	10393
1473	10396
1491	10398
1520	10401
1554	10403
1559	10406
1565	10408
1556	10412
1550	10414
1535	10417
1502	10419
1487	10421
1508	10424
1537	10426
1516	10429
1493	10431
1466	10434
1479	10436
1521	10439
1522	10441
1489	10444
1440	10446
1424	10449
1438	10451
1445	10454
1456	10457
1510	10459
1534	10462
1553	10464
1556	10467
1518	10469
1470	10472
1414	10474
1382	10477
1367	10479
1361	10481
1377	10484
1425	10486
1473	10489
1475	10491
1461	10494
1446	10497
1485	10500
1508	10502
1480	10505
1448	10507
1472	10509
1539	10512
1553	10514
1526	10517
1476	10519
1441	10522
1435	10524
1438	10527
1468	10529
1525	10532
1543	10534
1526	10537
1500	10540
1475	10542
1498	10545
1543	10547
1533	10550
1505	10552
1483	10555
1486	10557
1497	10560
1498	10562
1496	10565
1500	10567
1509	10569
1562	10572
1597	10574
1607	10577
1594	10579
1562	10583
1537	10585
1521	10588
1554	10590
1556	10593
1532	10595
1523	10597
1530	10600
1524	10602
1523	10605
1515	10607
1511	10610
1525	10612
1520	10615
1519	10617
1592	10620
1613	10622
1580	10625
1528	10628
1504	10630
1483	10633
1468	10635
1462	10638
1463	10640
1466	10643
1494	10645
1536	10648
1560	10650
1594	10653
1614	10655
1597	10657
1556	10660
1522	10662
1496	10665
1482	10668
1476	10671
1482	10673
1510	10676
1540	10678
1538	10681
1524	10683
1520	10685
1528	10688
1545	10690
1558	10693
1550	10695
1545	10698
1562	10700
1580	10703
1589	10705
1580	10708
1569	10711
1542	10713
1541	10716
1547	10718
1564	10721
1576	10723
1555	10726
1529	10728
1522	10731
1532	10733
1536	10736
1519	10738
1502	10741
1521	10743
1548	10745
1560	10748
1564	10750
1548	10754
1545	10756
1587	10759
1603	10761
1577	10764
1542	10766
1502	10769
1495	10771
1529	10773
1562	10776
1580	10778
1555	10781
1521	10783
1504	10786
1511	10788
1525	10791
1535	10793
1532	10797
1525	10799
1528	10801
1531	10804
1534	10806
1518	10809
1510	10811
1500	10814
1504	10816
1526	10819
1523	10821
1500	10824
1491	10826
1500	10829
1510	10831
1505	10833
1492	10836
1520	10839
1553	10842
1561	10844
1557	10847
1530	10849
1507	10852
1536	10854
1559	10857
1573	10859
1562	10861
1533	10864
1536	10866
1581	10869
1579	10871
1543	10874
1499	10876
1482	10880
1477	10882
1491	10885
1497	10887
1483	10889
1499	10892
1519	10894
1512	10897
1532	10899
1534	10902
1526	10904
1526	10907
1525	10909
1517	10912
1505	10914
1517	10917
1559	10919
1560	10921
1548	10925
1534	10927
1529	10930
1527	10932
1516	10935
1504	10937
1511	10940
1550	10942
1553	10945
1547	10947
1538	10949
1537	10952
1532	10954
1524	10957
1506	10959
1481	10962
1469	10964
1517	10968
1598	10970
1640	10973
1602	10975
1581	10977
1580	10980
1605	10982
1591	10985
1556	10987
1527	10990
1502	10992
1459	10995
1422	10997
1408	11000
1436	11002
1477	11004
1541	11008
1550	11010
1556	11013
1555	11015
1538	11018
1516	11020
1503	11023
1482	11025
1463	11028
1475	11030
1467	11033
1440	11035
1416	11037
1399	11040
1429	11042
1456	11045
1483	11047
1521	11051
1530	11053
1517	11056
1500	11058
1487	11061
1485	11063
1497	11065
1488	11068
1476	11070
1496	11073
1513	11075
1489	11078
1476	11080
1485	11083
1489	11085
1477	11088
1459	11090
1453	11092
1460	11096
1489	11098
1559	11101
1583	11103
1577	11106
1537	11108
1516	11111
1498	11113
1500	11116
1510	11118
1512	11121
1502	11123
1515	11125
1545	11128
1591	11130
1593	11133
1550	11136
1501	11139
1474	11141
1495	11144
1519	11146
1524	11149
1527	11151
1548	11153
1549	11156
1521	11158
1506	11161
1508	11163
1527	11166
1548	11168
1555	11171
1538	11173
1521	11176
1545	11179
1553	11181
1532	11184
1494	11186
1460	11189
1464	11191
1534	11194
1574	11196
1576	11199
1527	11201
1501	11204
1495	11206
1487	11209
1493	11211
1505	11213
1495	11216
1483	11218
1467	11222
1453	11224
1442	11227
1438	11229
1442	11232
1457	11234
1505	11237
1547	11239
1556	11241
1546	11244
1532	11246
1536	11249
1538	11251
1519	11254
1488	11256
1482	11259
1480	11261
1495	11265
1518	11267
1558	11269
1579	11272
1567	11274
1585	11277
1651	11279
1651	11282
1596	11284
1557	11287
1513	11289
1485	11292
1484	11294
1504	11297
1527	11299
1520	11301
1503	11304
1493	11307
1505	11310
1537	11312
1531	11315
1544	11317
1531	11320
1541	11322
1612	11325
1605	11327
1544	11329
1502	11332
1469	11334
1466	11337
1493	11339
1498	11342
1508	11344
1521	11347
1507	11350
1498	11353
1505	11355
1510	11357
1501	11360
1490	11362
1485	11365
1487	11367
1497	11370
1510	11372
1555	11375
1578	11377
1590	11380
1568	11382
1523	11384
1500	11387
1516	11389
1526	11393
1539	11395
1521	11398
1499	11400
1469	11403
1444	11405
1425	11408
1417	11410
1420	11413
1431	11415
1450	11417
1503	11420
1529	11422
1555	11425
1543	11427
1525	11430
1492	11432
1452	11436
1432	11438
1443	11441
1478	11443
1498	11445
1485	11448
1463	11450
1451	11453
1447	11455
1495	11458
1534	11460
1527	11463
1520	11465
1520	11468
1535	11470
1520	11472
1505	11475
1490	11478
1484	11481
1492	11483
1504	11486
1504	11488
1492	11491
1491	11493
1530	11496
1559	11498
1559	11501
1528	11503
1501	11505
1503	11508
1515	11510
1511	11513
1491	11515
1486	11518
1550	11521
1560	11524
1512	11526
1474	11529
1477	11531
1527	11533
1531	11536
1513	11538
1493	11541
1479	11543
1472	11546
1468	11548
1457	11551
1460	11553
1462	11556
1457	11558
1447	11560
1469	11564
1503	11566
1542	11569
1577	11571
1559	11574
1522	11576
1469	11579
1439	11581
1433	11584
1451	11586
1456	11589
1452	11591
1492	11593
1535	11596
1533	11598
1509	11601
1469	11603
1480	11607
1536	11609
1532	11612
1491	11614
1460	11617
1454	11619
1443	11621
1427	11624
1401	11626
1410	11629
1466	11631
1488	11634
1473	11636
1447	11639
1436	11641
1441	11644
1469	11646
1494	11649
1499	11652
1495	11654
1504	11657
1485	11659
1491	11662
1480	11664
1464	11667
1469	11669
1472	11672
1483	11674
1505	11676
1498	11679
1475	11681
1461	11684
1459	11686
1484	11689
1482	11692
1466	11695
1446	11697
1435	11700
1433	11702
1457	11705
1541	11707
1609	11709
1608	11712
1568	11714
1496	11717
1438	11719
1406	11722
1399	11724
1403	11727
1405	11729
1408	11732
1425	11735
1451	11737
1469	11740
1480	11742
1480	11745
1489	11747
1515	11750
1521	11752
1500	11755
1470	11757
1463	11760
1459	11762
1483	11764
1496	11767
1489	11769
1543	11772
1598	11774
1579	11778
1546	11780
1513	11783
1504	11785
1510	11788
1491	11790
1458	11793
1438	11795
1448	11797
1447	11800
1438	11802
1430	11805
1455	11807
1474	11810
1462	11812
1436	11815
1448	11817
1513	11821
1528	11823
1517	11825
1499	11828
1480	11830
1470	11833
1486	11835
1485	11838
1475	11840
1463	11843
1465	11845
1469	11848
1452	11850
1432	11852
1434	11855
1441	11857
1451	11860
1457	11863
1453	11866
1468	11868
1503	11871
1503	11873
1491	11876
1467	11878
1451	11881
1453	11883
1457	11885
1449	11888
1449	11890
1434	11893
1429	11895
1435	11898
1451	11900
1456	11904
1477	11906
1502	11909
1509	11911
1507	11913
1514	11916
1525	11918
1533	11921
1521	11923
1483	11926
1475	11928
1486	11931
1492	11933
1478	11936
1458	11938
1459	11940
1482	11943
1515	11945
1510	11949
1488	11951
1469	11954
1442	11956
1433	11959
1454	11961
1451	11964
1432	11966
1435	11969
1444	11971
1435	11973
1440	11976
1445	11978
1435	11981
1442	11983
1449	11986
1452	11988
1444	11992
1442	11994
1454	11997
1454	11999
1479	12001
1518	12004
1559	12006
1576	12009
1555	12011
1516	12014
1477	12016
1459	12019
1486	12021
1501	12024
1485	12026
1455	12028
1437	12032
1455	12034
1488	12037
1512	12039
1506	12042
1478	12044
1460	12047
1445	12049
1428	12052
1419	12054
1427	12056
1490	12059
1517	12061
1497	12064
1465	12066
1445	12069
1445	12071
1451	12075
1457	12077
1452	12080
1445	12082
1454	12085
1483	12087
1511	12089
1497	12092
1488	12094
1472	12097
1461	12099
1449	12102
1457	12104
1498	12107
1499	12109
1506	12112
1520	12114
1546	12116
1559	12120
1549	12122
1511	12125
1462	12127
1446	12130
1459	12132
1458	12135
1464	12137
1482	12140
1518	12142
1522	12144
1496	12147
1453	12149
1429	12152
1415	12154
1403	12157
1410	12160
1430	12163
1438	12165
1431	12168
1421	12170
1430	12173
1441	12175
1448	12177
1475	12180
1489	12182
1523	12185
1537	12187
1527	12190
1524	12192
1507	12195
1489	12197
1460	12200
1443	12203
1470	12205
1492	12208
1499	12210
1506	12213
1503	12215
1496	12218
1494	12220
1523	12223
1548	12225
1536	12228
1495	12230
1453	12232
1443	12235
1475	12237
1495	12240
1501	12242
1487	12246
1492	12248
1479	12251
1452	12253
1446	12256
1452	12258
1467	12260
1476	12263
1478	12265
1473	12268
1461	12270
1454	12273
1459	12275
1463	12278
1462	12280
1459	12283
1451	12285
1443	12289
1443	12291
1456	12293
1475	12296
1487	12298
1508	12301
1517	12303
1519	12306
1518	12308
1521	12311
1511	12313
1510	12316
1580	12318
1637	12320
1605	12323
1550	12325
1483	12328
1450	12331
1431	12334
1425	12336
1424	12339
1428	12341
1431	12344
1436	12346
1438	12348
1438	12351
1451	12353
1482	12356
1505	12358
1511	12361
1516	12363
1498	12366
1480	12368
1482	12371
1499	12374
1501	12377
1481	12379
1468	12381
1479	12384
1513	12386
1520	12389
1516	12391
1513	12394
1513	12396
1520	12399
1526	12401
1547	12404
1561	12406
1549	12408
1537	12411
1520	12413
1523	12417
1536	12419
1533	12422
1511	12424
1490	12427
1478	12429
1492	12432
1502	12434
1552	12436
1562	12439
1535	12441
1510	12444
1538	12446
1600	12449
1586	12451
1532	12454
1479	12456
1450	12460
1472	12462
1531	12464
1550	12467
1516	12469
1468	12472
1436	12474
1423	12477
1444	12479
1463	12482
1460	12484
1464	12487
1464	12489
1457	12492
1504	12494
1598	12496
1614	12499
1574	12502
1532	12505
1522	12507
1492	12510
1465	12512
1445	12515
1473	12517
1504	12520
1509	12522
1506	12524
1521	12527
1516	12529
1474	12532
1448	12534
1439	12537
1423	12539
1412	12542
1407	12545
1409	12548
1416	12550
1423	12552
1446	12555
1480	12557
1558	12560
1596	12562
1569	12565
1526	12567
1500	12570
1498	12572
1520	12575
1520	12577
1497	12580
1459	12582
1437	12584
1431	12588
1492	12590
1550	12593
1561	12595
1553	12598
1527	12600
1493	12603
1482	12605
1473	12608
1457	12610
1447	12612
1447	12615
1448	12617
1445	12620
1442	12622
1471	12625
1522	12627
1545	12631
1530	12633
1494	12636
1469	12638
1463	12640
1467	12643
1477	12645
1486	12648
1491	12650
1490	12653
1504	12655
1545	12658
1559	12660
1552	12663
1542	12665
1557	12667
1574	12670
1582	12673
1569	12676
1551	12678
1542	12681
1550	12683
1554	12686
1579	12688
1583	12691
1550	12693
1505	12696
1466	12698
1445	12700
1437	12703
1446	12705
1451	12708
1460	12710
1504	12713
1548	12716
1586	12719
1595	12721
1557	12724
1515	12726
1491	12728
1480	12731
1475	12733
1480	12736
1480	12738
1540	12741
1569	12743
1557	12746
1535	12748
1504	12751
1480	12753
1457	12755
1446	12759
1441	12761
1440	12764
1438	12766
1437	12769
1438	12771
1444	12774
1466	12776
1479	12779
1492	12781
1493	12784
1503	12786
1540	12788
1543	12791
1531	12793
1540	12796
1556	12798
1565	12802
1550	12804
1517	12807
1490	12809
1472	12812
1466	12814
1467	12816
1483	12819
1498	12821
1499	12824
1498	12826
1498	12829
1507	12831
1511	12834
1506	12836
1496	12839
1485	12841
1482	12844
1489	12847
1486	12849
1481	12852
1481	12854
1495	12857
1531	12859
1547	12862
1540	12864
1527	12867
1516	12869
1514	12872
1511	12874
1509	12876
1516	12879
1533	12881
1537	12884
1555	12887
1566	12890
1561	12892
1563	12895
1574	12897
1582	12900
1575	12902
1552	12904
1539	12907
1529	12909
1517	12912
1523	12914
1533	12917
1543	12919
1553	12922
1533	12924
1504	12928
1480	12930
1474	12932
1474	12935
1478	12937
1481	12940
1489	12942
1495	12945
1493	12947
1489	12950
1479	12952
1472	12955
1479	12957
1510	12960
1559	12962
1584	12964
1580	12967
1583	12969
1559	12973
1515	12975
1493	12978
1478	12980
1508	12983
1539	12985
1561	12988
1567	12990
1544	12992
1510	12995
1481	12997
1476	13000
1488	13002
1502	13005
1512	13007
1499	13010
1456	13012
1421	13016
1407	13018
1403	13020
1420	13023
1455	13025
1486	13028
1494	13030
1486	13033
1461	13035
1438	13038
1426	13040
1438	13043
1502	13045
1555	13047
1569	13050
1522	13052
1493	13056
1493	13058
1496	13061
1483	13063
1460	13066
1445	13068
1442	13071
1435	13073
1417	13076
1403	13078
1406	13080
1407	13083
1404	13085
1418	13088
1439	13090
1444	13093
1456	13095
1460	13099
1459	13101
1478	13104
1517	13106
1537	13108
1533	13111
1509	13113
1489	13116
1474	13118
1456	13121
1476	13123
1574	13126
1629	13128
1607	13131
1548	13133
1497	13135
1479	13138
1489	13140
1529	13144
1505	13146
1479	13149
1473	13151
1460	13154
1454	13156
1447	13159
1434	13161
1417	13163
1410	13166
1420	13168
1441	13171
1456	13173
1465	13176
1463	13178
1468	13181
1475	13184
1523	13187
1600	13189
1614	13192
1565	13194
1519	13196
1515	13199
1504	13201
1499	13204
1484	13206
1464	13209
1463	13211
1472	13214
1509	13216
1521	13219
1519	13221
1491	13223
1456	13227
1443	13229
1450	13232
1462	13234
1516	13237
1522	13239
1479	13242
1427	13244
1416	13247
1423	13249
1424	13251
1427	13254
1457	13256
1469	13259
1459	13261
1445	13264
1436	13266
1432	13270
1454	13272
1461	13275
1459	13277
1453	13280
1454	13282
1488	13284
1507	13287
1511	13289
1517	13292
1527	13294
1524	13297
1539	13299
1590	13302
1591	13304
1565	13307
1522	13309
1485	13312
1454	13315
1438	13317
1435	13320
1430	13322
1441	13325
1446	13327
1435	13330
1429	13332
1431	13335
1481	13337
1567	13339
1571	13342
1545	13344
1557	13347
1559	13349
1528	13352
1481	13355
1454	13358
1482	13360
1502	13363
1498	13365
1511	13368
1526	13370
1523	13372
1504	13375
1505	13377
1489	13380
1457	13382
1476	13385
1557	13387
1605	13390
1550	13392
1472	13395
1409	13398
1400	13400
1439	13403
1461	13405
1445	13408
1428	13410
1414	13413
1431	13415
1454	13418
1467	13420
1468	13423
1446	13425
1435	13427
1461	13430
1482	13432
1485	13435
1471	13437
1455	13441
1457	13443
1472	13446
1477	13448
1468	13451
1464	13453
1497	13455
1520	13458
1501	13460
1484	13463
1476	13465
1466	13468
1478	13470
1492	13473
1490	13475
1489	13478
1499	13480
1522	13484
1538	13486
1573	13488
1620	13491
1629	13493
1606	13496
1545	13498
1508	13501
1488	13503
1471	13506
1470	13508
1496	13511
1497	13513
1490	13515
1478	13518
1454	13520
1446	13523
1451	13526
1485	13529
1498	13531
1493	13534
1487	13536
1489	13539
1530	13541
1552	13543
1560	13546
1538	13548
1507	13551
1481	13553
1459	13556
1441	13558
1461	13561
1470	13563
1462	13566
1461	13569
1466	13572
1505	13574
1517	13576
1496	13579
1483	13581
1487	13584
1476	13586
1475	13589
1510	13591
1526	13594
1495	13596
1459	13599
1438	13601
1464	13603
1501	13606
1505	13608
1501	13612
1493	13614
1484	13617
1468	13619
1460	13622
1523	13624
1553	13627
1528	13629
1512	13631
1519	13634
1532	13636
1537	13639
1522	13641
1547	13644
1539	13646
1501	13649
1462	13651
1444	13655
1431	13657
1428	13660
1427	13662
1427	13664
1445	13667
1501	13669
1512	13672
1498	13674
1500	13677
1522	13679
1522	13682
1506	13684
1502	13687
1516	13689
1553	13691
1549	13694
1526	13697
1507	13700
1497	13702
1500	13705
1494	13707
1474	13710
1467	13712
1460	13715
1460	13717
1524	13719
1559	13722
1544	13724
1527	13727
1513	13729
1504	13732
1503	13734
1498	13737
1488	13740
1523	13743
1539	13745
1537	13747
1538	13750
1526	13752
1521	13755
1510	13757
1500	13760
1487	13762
1467	13765
1479	13767
1537	13770
1578	13772
1590	13775
1561	13777
1511	13779
1483	13783
1474	13785
1476	13788
1461	13790
1443	13793
1438	13795
1457	13798
1562	13800
1604	13803
1577	13805
1530	13807
1495	13810
1493	13812
1505	13815
1534	13817
1530	13820
1499	13822
1470	13826
1468	13828
1495	13831
1514	13833
1502	13835
1470	13838
1449	13840
1464	13843
1514	13845
1539	13848
1536	13850
1511	13853
1505	13855
1516	13858
1523	13860
1505	13863
1497	13865
1518	13868
1508	13871
1474	13873
1447	13876
1454	13878
1485	13881
1485	13883
1473	13886
1474	13888
1558	13891
1610	13893
1599	13895
1550	13898
1506	13900
1471	13903
1477	13905
1523	13908
1533	13911
1531	13914
1527	13916
1511	13919
1488	13921
1473	13924
1462	13926
1458	13928
1446	13931
1433	13933
1464	13936
1491	13938
1482	13941
1460	13943
1441	13946
1428	13948
1431	13952
1442	13954
1459	13956
1475	13959
1482	13961
1481	13964
1495	13966
1521	13969
1555	13971
1553	13974
1540	13976
1535	13979
1534	13981
1524	13983
1511	13986
1500	13988
1494	13991
1481	13993
1473	13997
1483	13999
1504	14002
1522	14004
1550	14007
1574	14009
1558	14011
1535	14014
1520	14016
1529	14019
1529	14021
1525	14024
1527	14026
1523	14029
1512	14031
1503	14034
1524	14036
1543	14040
1551	14042
1563	14044
1608	14047
1607	14049
1562	14052
1539	14054
1536	14057
1524	14059
1510	14062
1503	14064
1497	14067
1502	14069
1534	14071
1532	14074
1517	14076
1506	14080
1493	14082
1501	14085
1496	14087
1494	14090
1498	14092
1494	14095
1485	14097
1488	14099
1500	14102
1494	14104
1486	14107
1483	14109
1493	14112
1538	14114
1604	14117
1603	14119
1566	14123
1538	14125
1518	14128
1511	14130
1509	14132
1508	14135
1510	14137
1526	14140
1518	14142
1497	14145
1478	14147
1465	14150
1464	14152
1480	14155
1504	14157
1521	14159
1524	14162
1521	14164
1504	14168
1501	14170
1522	14173
1537	14175
1554	14178
1563	14180
1560	14183
1557	14185
1599	14187
1616	14190
1593	14192
1565	14195
1565	14197
1553	14200
1527	14202
1506	14205
1506	14208
1508	14211
1499	14213
1499	14216
1520	14218
1537	14220
1531	14223
1507	14225
1474	14228
1465	14230
1477	14233
1491	14235
1497	14238
1527	14240
1563	14243
1556	14245
1525	14247
1482	14251
1463	14253
1478	14256
1530	14258
1535	14261
1501	14263
1487	14266
1473	14268
1476	14271
1486	14273
1487	14275
1470	14278
1454	14280
1484	14283
1567	14285
1584	14288
1544	14290
1505	14294
1464	14296
1446	14299
1443	14301
1475	14304
1509	14306
1505	14308
1496	14311
1513	14313
1560	14316
1586	14318
1553	14321
1519	14323
1496	14326
1489	14328
1507	14331
1511	14333
1500	14336
1494	14339
1501	14341
1514	14344
1508	14346
1500	14349
1505	14351
1517	14354
1548	14356
1569	14359
1581	14361
1581	14363
1591	14366
1593	14368
1569	14371
1573	14373
1566	14376
1548	14379
1520	14382
1502	14384
1492	14387
1501	14389
1509	14391
1522	14394
1553	14396
1558	14399
1559	14401
1558	14404
1568	14406
1558	14409
1570	14411
1582	14414
1609	14416
1646	14419
1642	14422
1622	14424
1618	14427
1624	14429
1605	14432
1563	14434
1541	14437
1553	14439
1533	14442
1461	14444
1404	14447
1374	14449
1360	14451
1368	14454
1383	14456
1355	14459
1325	14461
1309	14465
1299	14467
1305	14470
1311	14472
1338	14475
1404	14477
1447	14479
1459	14482
1458	14484
1449	14487
1443	14489
1484	14492
1536	14494
1553	14497
1554	14499
1526	14502
1481	14504
1460	14508
1457	14510
1449	14512
1451	14515
1458	14517
1476	14520
1515	14522
1555	14525
1559	14527
1540	14530
1535	14532
1565	14535
1580	14537
1582	14539
1566	14542
1549	14544
1524	14547
1489	14550
1463	14553
1459	14555
1502	14558
1545	14560
1550	14563
1528	14565
1529	14567
1571	14570
1572	14572
1543	14575
1562	14577
1593	14580
1604	14582
1626	14585
1611	14587
1566	14590
1536	14593
1503	14596
1486	14598
1514	14600
1566	14603
1558	14605
1534	14608
1508	14610
1532	14613
1560	14615
1572	14618
1539	14620
1495	14623
1465	14625
1474	14627
1479	14630
1466	14632
1461	14636
1486	14638
1517	14641
1520	14643
1506	14646
1475	14648
1448	14651
1443	14653
1460	14655
1493	14658
1537	14660
1532	14663
1499	14665
1471	14668
1473	14670
1486	14673
1485	14675
1501	14679
1547	14681
1586	14683
1596	14686
1591	14688
1589	14691
1557	14693
1526	14696
1516	14698
1514	14701
1544	14703
1544	14706
1513	14708
1498	14711
1512	14713
1519	14715
1530	14718
1551	14721
1560	14724
1573	14726
1547	14729
1513	14731
1491	14734
1502	14736
1518	14739
1515	14741
1505	14743
1487	14746
1473	14748
1468	14751
1477	14753
1491	14756
1490	14758
1486	14761
1480	14764
1481	14767
1497	14769
1544	14771
1580	14774
1579	14776
1544	14779
1495	14781
1465	14784
1459	14786
1477	14789
1505	14791
1543	14794
1564	14796
1532	14798
1493	14801
1501	14803
1510	14807
1503	14809
1489	14812
1454	14814
1449	14817
1475	14819
1498	14822
1478	14824
1459	14827
1450	14829
1436	14831
1424	14834
1415	14836
1432	14839
1473	14841
1482	14844
1479	14846
1480	14850
1496	14852
1517	14855
1515	14857
1513	14859
1516	14862
1541	14864
1533	14867
1500	14869
1504	14872
1520	14874
1518	14877
1504	14879
1524	14882
1535	14884
1512	14886
1474	14889
1460	14892
1465	14895
1468	14897
1477	14900
1485	14902
1479	14905
1510	14907
1559	14910
1562	14912
1537	14915
1507	14917
1475	14919
1467	14922
1504	14924
1544	14927
1533	14929
1494	14932
1465	14935
1454	14938
1459	14940
1498	14943
1538	14945
1549	14947
1538	14950
1519	14952
1527	14955
1537	14957
1510	14960
1482	14962
1488	14965
1503	14967
1516	14970
1528	14972
1534	14974
1513	14978
1493	14980
1479	14983
1470	14985
1465	14988
1461	14990
1458	14993
1455	14995
1461	14998
1474	15000
1485	15003
1506	15005
1511	15007
1500	15010
1512	15012
1557	15015
1564	15017
1532	15021
1512	15023
1512	15026
1517	15028
1518	15031
1509	15033
1495	15035
1490	15038
1500	15040
1521	15043
1525	15045
1526	15048
1533	15050
1567	15053
1608	15055
1627	15058
1616	15060
1574	15063
1522	15066
1483	15068
1460	15071
1467	15073
1509	15076
1513	15078
1496	15081
1488	15083
1482	15086
1479	15088
1481	15090
1490	15093
1495	15095
1499	15098
1499	15100
1495	15104
1492	15106
1493	15109
1505	15111
1532	15114
1550	15116
1550	15119
1543	15121
1528	15123
1514	15126
1508	15128
1508	15131
1508	15133
1508	15136
1521	15138
1530	15141
1527	15143
1558	15147
1570	15149
1564	15151
1558	15154
1587	15156
1626	15159
1602	15161
1551	15164
1511	15166
1478	15169
1460	15171
1452	15174
1447	15176
1446	15178
1454	15181
1464	15183
1471	15186
1475	15188
1480	15192
1484	15194
1487	15197
1489	15199
1492	15202
1499	15204
1506	15207
1510	15209
1523	15211
1525	15214
1509	15216
1500	15219
1488	15221
1487	15224
1497	15226
1505	15229
1519	15232
1537	15235
1543	15237
1533	15239
1517	15242
1495	15244
1481	15247
1472	15249
1469	15252
1469	15254
1470	15257
1477	15259
1487	15262
1496	15264
1506	15266
1507	15269
1500	15271
1494	15275
1490	15277
1490	15280
1490	15282
1491	15285
1491	15287
1494	15290
1502	15292
1518	15295
1527	15297
1529	15299
1534	15302
1534	15304
1533	15307
1534	15309
1535	15312
1536	15314
1528	15318
1520	15320
1515	15323
1518	15325
1513	15327
1507	15330
1504	15332
1501	15335
1501	15337
1518	15340
1543	15342
1547	15345
1530	15347
1511	15350
1497	15352
1491	15354
1487	15357
1487	15360
1487	15363
1489	15365
1490	15368
1490	15370
1490	15373
1490	15375
1490	15378
1491	15380
1493	15383
1495	15385
1496	15387
1497	15390
1499	15392
1499	15395
1501	15397
1507	15400
1519	15403
1531	15406
1534	15408
1528	15411
1517	15413
1508	15415
1501	15418
1498	15420
1497	15423
1496	15425
1494	15428
1493	15430
1493	15433
1495	15435
1497	15438
1497	15440
1497	15442
1496	15446
1495	15448
1495	15451
1495	15453
1496	15456
1497	15458
1497	15461
1500	15463
1500	15466
1499	15468
1498	15471
1497	15473
1497	15475
1497	15478
1498	15480
1498	15483
1498	15485
1498	15489
1499	15491
1499	15494
1499	15496
1501	15499
1503	15501
1505	15503
1505	15506
1503	15508
1500	15511
1499	15513
1496	15516
1495	15518
1494	15521
1493	15523
1493	15526
1493	15528
1493	15531
1494	15534
1494	15536
1495	15539
