⸮T⸮I2C Verbindung gefunden!.
1504	2
1504	4
1503	7
1504	9
1504	11
1504	13
1503	16
1502	18
1502	20
1503	23
1503	25
1503	27
1502	30
1502	32
1501	34
1501	36
1501	39
1501	41
1501	44
1503	47
1506	49
1506	51
1505	54
1504	56
1504	58
1504	61
1504	63
1504	65
1504	67
1504	70
1505	72
1506	74
1507	77
1509	79
1511	81
1510	84
1510	87
1509	89
1509	91
1509	94
1510	96
1511	98
1510	101
1510	103
1509	105
1509	108
1509	110
1509	112
1510	115
1510	117
1511	120
1513	122
1514	124
1514	128
1514	130
1513	132
1513	135
1514	137
1514	139
1514	142
1514	144
1515	146
1516	149
1518	151
1523	153
1524	156
1521	158
1519	161
1518	163
1516	165
1516	168
1516	171
1516	173
1516	176
1515	178
1516	180
1517	183
1517	185
1517	187
1516	190
1515	192
1515	194
1516	197
1516	199
1516	202
1516	204
1514	206
1512	209
1511	211
1510	214
1511	217
1511	219
1510	221
1510	224
1509	226
1507	228
1505	231
1503	233
1501	236
1499	238
1498	240
1498	243
1498	245
1498	247
1496	250
1495	252
1495	254
1495	258
1494	260
1494	262
1494	265
1494	267
1495	269
1496	272
1496	274
1496	277
1495	279
1494	281
1493	284
1494	286
1495	288
1496	291
1496	293
1496	295
1495	299
1493	301
1491	303
1490	306
1489	308
1489	310
1491	313
1493	315
1492	318
1493	320
1492	322
1491	325
1489	327
1487	329
1487	332
1486	334
1486	336
1485	339
1484	342
1484	344
1483	347
1483	349
1482	352
1482	354
1482	356
1482	359
1482	361
1481	363
1481	366
1481	368
1480	370
1479	373
1479	375
1478	377
1478	380
1477	382
1477	385
1477	388
1477	390
1477	393
1478	395
1478	397
1478	400
1479	402
1479	404
1479	407
1480	409
1481	411
1481	414
1480	416
1480	418
1479	421
1480	423
1480	425
1479	429
1481	431
1482	434
1483	436
1482	438
1480	441
1480	443
1480	445
1481	448
1481	450
1481	452
1481	455
1481	457
1481	459
1480	462
1480	464
1480	467
1481	470
1482	472
1482	475
1482	477
1485	479
1490	482
1489	484
1488	486
1486	489
1484	491
1483	493
1482	496
1481	498
1480	500
1480	503
1481	505
1480	508
1479	510
1479	513
1479	516
1478	518
1478	520
1478	523
1478	525
1479	527
1478	530
1477	532
1476	534
1475	537
1475	539
1477	541
1478	544
1478	546
1476	549
1475	551
1474	553
1474	557
1475	559
1477	561
1478	564
1477	566
1476	568
1476	571
1475	573
1474	575
1473	578
1474	580
1474	583
1476	585
1477	587
1477	590
1477	592
1477	594
1478	598
1479	600
1479	602
1480	605
1481	607
1482	609
1483	612
1484	614
1485	616
1485	619
1485	621
1484	624
1484	626
1486	628
1488	631
1491	633
1493	635
1492	638
1491	641
1491	643
1490	646
1489	648
1488	650
1489	653
1488	655
1489	657
1490	660
1490	662
1491	665
1492	667
1492	669
1493	672
1494	674
1495	676
1496	679
1497	681
1498	684
1498	687
1499	689
1500	691
1501	694
1502	696
1503	699
1504	701
1505	703
1505	706
1504	708
1504	710
1505	713
1505	715
1505	717
1505	720
1505	722
1507	724
1508	728
1509	730
1511	732
1510	735
1508	737
1506	740
1505	742
1503	744
1502	747
1501	749
1501	751
1501	754
1502	756
1501	758
1500	761
1499	763
1498	765
1498	769
1497	771
1496	774
1496	776
1495	778
1495	781
1494	783
1494	785
1495	788
1497	790
1498	792
1497	795
1496	797
1494	799
1492	802
1493	804
1494	806
1494	809
1492	812
1490	815
1491	817
1492	819
1492	822
1492	824
1492	826
1491	829
1491	831
1491	833
1491	836
1491	838
1491	840
1492	843
1492	845
1494	848
1495	850
1496	852
1497	856
1498	858
1499	860
1499	863
1498	865
1499	867
1499	870
1500	872
1502	874
1504	877
1503	879
1502	881
1500	884
1499	886
1499	889
1500	891
1501	893
1502	897
1502	899
1502	901
1501	904
1502	906
1504	908
1506	911
1505	913
1504	915
1503	918
1501	920
1501	922
1501	925
1500	927
1500	930
1500	932
1500	934
1501	937
1501	940
1504	942
1507	945
1506	947
1505	949
1503	952
1502	954
1502	956
1503	959
1504	961
1504	964
1504	966
1502	968
1501	971
1501	973
1500	975
1501	978
1502	980
1503	983
1503	986
1503	988
1502	990
1502	993
1502	995
1502	997
1502	1000
1502	1002
1502	1005
1502	1007
1503	1009
1503	1012
1502	1014
1501	1017
1501	1019
1501	1021
1501	1025
1500	1027
1499	1030
1499	1032
1499	1035
1500	1037
1500	1039
1500	1042
1502	1044
1504	1047
1505	1049
1504	1051
1507	1054
1508	1056
1506	1059
1504	1061
1503	1063
1502	1067
1502	1069
1501	1072
1500	1074
1499	1076
1499	1079
1500	1081
1501	1084
1501	1086
1500	1088
1500	1091
1500	1093
1499	1096
1498	1098
1498	1100
1498	1103
1498	1105
1498	1108
1498	1111
1498	1114
1499	1116
1501	1118
1502	1121
1502	1123
1502	1126
1502	1128
1502	1130
1501	1133
1501	1135
1500	1138
1497	1140
1495	1142
1494	1145
1493	1147
1493	1150
1495	1153
1495	1155
1495	1158
1495	1160
1494	1163
1493	1165
1493	1167
1492	1170
1491	1172
1490	1175
1490	1177
1492	1179
1493	1182
1493	1184
1492	1187
1491	1189
1490	1191
1489	1195
1489	1197
1489	1200
1489	1202
1489	1205
1489	1207
1489	1209
1490	1212
1491	1214
1491	1217
1491	1219
1492	1221
1492	1224
1491	1226
1491	1229
1492	1231
1492	1233
1493	1236
1493	1239
1492	1242
1493	1244
1494	1246
1495	1249
1496	1251
1495	1254
1494	1256
1492	1258
1491	1261
1492	1263
1492	1266
1491	1268
1490	1270
1490	1273
1489	1275
1489	1278
1490	1281
1491	1283
1492	1286
1493	1288
1494	1291
1493	1293
1491	1295
1490	1298
1489	1300
1489	1303
1490	1305
1491	1308
1490	1310
1490	1312
1490	1315
1489	1317
1489	1320
1490	1323
1488	1325
1487	1328
1486	1330
1486	1333
1486	1335
1486	1337
1486	1340
1486	1342
1486	1345
1486	1347
1487	1349
1487	1352
1488	1354
1488	1357
1488	1359
1489	1361
1490	1364
1491	1367
1493	1370
1495	1372
1497	1374
1499	1377
1499	1379
1498	1382
1497	1384
1496	1386
1497	1389
1498	1391
1499	1394
1498	1396
1498	1398
1497	1401
1496	1403
1496	1406
1496	1409
1497	1412
1499	1414
1499	1416
1499	1419
1498	1421
1498	1424
1498	1426
1497	1428
1498	1431
1500	1433
1501	1436
1500	1438
1501	1440
1500	1443
1500	1445
1500	1448
1498	1451
1497	1453
1496	1456
1496	1458
1496	1461
1495	1463
1496	1465
1496	1468
1497	1470
1498	1473
1498	1475
1496	1477
1496	1480
1495	1482
1495	1485
1495	1487
1495	1489
1496	1492
1496	1495
1496	1498
1497	1500
1499	1502
1500	1505
1500	1507
1499	1510
1498	1512
1497	1515
1497	1517
1498	1519
1498	1522
1497	1524
1497	1527
1497	1529
1498	1531
1499	1534
1500	1537
1501	1540
1501	1542
1500	1544
1501	1547
1502	1549
1501	1552
1498	1554
1497	1556
1495	1559
1495	1561
1496	1564
1495	1566
1494	1568
1494	1571
1495	1573
1495	1576
1496	1579
1496	1582
1496	1584
1497	1586
1498	1589
1499	1591
1501	1594
1500	1596
1500	1598
1499	1601
1498	1603
1497	1606
1497	1608
1497	1610
1497	1613
1499	1615
1502	1618
1503	1620
1504	1623
1506	1626
1506	1628
1506	1631
1505	1633
1504	1635
1501	1638
1500	1640
1499	1643
1499	1645
1499	1647
1501	1650
1503	1652
1503	1655
1503	1657
1504	1659
1505	1662
1504	1665
1504	1668
1504	1670
1504	1673
1503	1675
1501	1677
1499	1680
1499	1682
1500	1685
1501	1687
1503	1689
1502	1692
1502	1694
1502	1697
1501	1699
1501	1701
1499	1704
1498	1707
1501	1710
1503	1712
1504	1714
1504	1717
1502	1719
1500	1722
1499	1724
1500	1726
1502	1729
1501	1731
1500	1734
1499	1736
1498	1738
1495	1741
1493	1743
1492	1746
1493	1748
1494	1751
1494	1754
1496	1756
1497	1759
1498	1761
1500	1763
1500	1766
1499	1768
1500	1771
1501	1773
1501	1776
1498	1778
1496	1780
1494	1783
1493	1785
1495	1788
1497	1790
1497	1793
1495	1796
1493	1798
1492	1801
1491	1803
1491	1805
1489	1808
1490	1810
1490	1813
1487	1815
1485	1817
1484	1820
1483	1822
1482	1825
1481	1827
1483	1829
1483	1832
1483	1835
1482	1838
1482	1840
1482	1842
1483	1845
1484	1847
1485	1850
1485	1852
1485	1854
1486	1857
1486	1859
1485	1862
1484	1864
1483	1866
1486	1869
1486	1871
1487	1874
1490	1876
1491	1880
1491	1882
1490	1884
1490	1887
1490	1889
1489	1892
1488	1894
1487	1896
1487	1899
1489	1901
1491	1904
1490	1906
1490	1908
1489	1911
1488	1913
1488	1916
1490	1918
1491	1921
1492	1924
1492	1926
1492	1929
1492	1931
1491	1933
1490	1936
1489	1938
1488	1941
1487	1943
1488	1945
1489	1948
1489	1950
1488	1953
1487	1955
1486	1957
1487	1960
1488	1963
1488	1966
1489	1968
1493	1971
1493	1973
1493	1975
1494	1978
1494	1980
1494	1983
1500	1985
1506	1987
1506	1990
1505	1992
1502	1995
1499	1997
1497	1999
1495	2002
1495	2004
1495	2008
1497	2010
1497	2012
1498	2015
1499	2017
1501	2020
1502	2022
1499	2024
1498	2027
1502	2029
1513	2032
1523	2034
1531	2036
1526	2039
1517	2041
1508	2044
1501	2046
1495	2049
1491	2052
1489	2054
1487	2057
1488	2059
1489	2062
1492	2064
1495	2066
1499	2069
1506	2071
1514	2074
1512	2076
1506	2078
1502	2081
1498	2083
1494	2086
1494	2088
1495	2091
1494	2094
1491	2096
1489	2099
1489	2101
1489	2103
1488	2106
1487	2108
1490	2111
1491	2113
1490	2115
1488	2118
1485	2120
1487	2123
1492	2125
1494	2127
1494	2130
1503	2132
1507	2136
1502	2138
1497	2140
1493	2143
1496	2145
1504	2148
1506	2150
1505	2152
1505	2155
1506	2157
1503	2160
1496	2162
1490	2165
1486	2167
1491	2169
1504	2172
1506	2174
1511	2178
1514	2180
1516	2182
1514	2185
1507	2187
1499	2190
1492	2192
1488	2194
1489	2197
1496	2199
1510	2202
1523	2204
1526	2206
1526	2209
1524	2211
1518	2214
1510	2216
1499	2219
1495	2222
1493	2224
1495	2227
1498	2229
1499	2231
1501	2234
1500	2236
1502	2239
1507	2241
1523	2244
1534	2246
1534	2248
1534	2251
1532	2253
1524	2256
1517	2258
1509	2260
1508	2264
1517	2266
1523	2269
1524	2271
1523	2273
1525	2276
1534	2278
1543	2281
1557	2283
1558	2285
1545	2288
1531	2290
1520	2293
1528	2295
1536	2297
1533	2300
1539	2302
1535	2306
1525	2308
1520	2310
1513	2313
1513	2315
1529	2318
1549	2320
1564	2323
1563	2325
1547	2327
1543	2330
1539	2332
1552	2335
1553	2337
1530	2339
1514	2342
1506	2344
1516	2348
1537	2350
1556	2352
1561	2355
1546	2357
1530	2360
1530	2362
1537	2364
1539	2367
1523	2369
1508	2372
1508	2374
1526	2376
1551	2379
1555	2381
1559	2384
1568	2386
1591	2388
1611	2392
1592	2394
1547	2397
1533	2399
1535	2402
1535	2404
1545	2406
1571	2409
1576	2411
1599	2414
1592	2416
1561	2418
1534	2421
1507	2423
1489	2426
1471	2428
1482	2430
1472	2434
1482	2436
1518	2439
1535	2441
1521	2443
1495	2446
1481	2448
1483	2451
1493	2453
1511	2455
1531	2458
1538	2460
1531	2463
1509	2465
1498	2467
1486	2470
1509	2472
1549	2476
1587	2478
1607	2481
1585	2483
1564	2485
1541	2488
1528	2490
1517	2493
1493	2495
1478	2497
1464	2500
1479	2502
1518	2505
1542	2507
1505	2509
1450	2512
1415	2514
1398	2518
1399	2520
1459	2522
1515	2525
1520	2527
1490	2530
1469	2532
1481	2534
1469	2537
1450	2539
1485	2542
1535	2544
1534	2546
1495	2549
1463	2551
1473	2554
1492	2556
1533	2560
1555	2562
1532	2564
1517	2567
1486	2569
1453	2572
1425	2574
1412	2576
1419	2579
1429	2581
1444	2584
1444	2586
1425	2588
1443	2591
1453	2593
1483	2596
1521	2598
1499	2600
1490	2604
1475	2606
1460	2609
1436	2611
1419	2613
1433	2616
1439	2618
1479	2621
1542	2623
1524	2625
1456	2628
1414	2630
1385	2633
1386	2635
1402	2637
1415	2640
1464	2642
1508	2646
1567	2648
1532	2650
1468	2653
1425	2655
1412	2658
1429	2660
1507	2663
1558	2665
1514	2667
1478	2670
1498	2672
1518	2675
1483	2677
1457	2679
1461	2682
1456	2684
1457	2688
1455	2690
1480	2692
1479	2695
1482	2697
1485	2700
1470	2702
1437	2704
1411	2707
1414	2709
1435	2712
1443	2714
1458	2716
1481	2719
1491	2721
1514	2724
1508	2726
1483	2728
1467	2732
1456	2734
1442	2737
1455	2739
1458	2741
1481	2744
1530	2746
1549	2749
1504	2751
1483	2754
1454	2756
1453	2758
1504	2761
1518	2763
1531	2766
1556	2768
1540	2770
1492	2774
1483	2776
1485	2779
1506	2781
1521	2783
1518	2786
1527	2788
1502	2791
1467	2793
1468	2795
1466	2798
1455	2800
1441	2803
1448	2805
1462	2807
1452	2810
1437	2812
1450	2816
1486	2818
1496	2820
1487	2823
1526	2825
1529	2828
1500	2830
1473	2833
1470	2835
1498	2837
1533	2840
1580	2842
1581	2845
1531	2847
1510	2849
1504	2852
1548	2854
1583	2857
1566	2860
1552	2862
1524	2865
1552	2867
1547	2870
1504	2872
1474	2874
1482	2877
1511	2879
1513	2882
1501	2884
1473	2886
1436	2889
1432	2891
1444	2894
1432	2896
1453	2898
1450	2902
1476	2904
1487	2907
1482	2909
1457	2911
1435	2914
1418	2916
1447	2919
1489	2921
1502	2924
1504	2926
1489	2928
1459	2931
1457	2933
1437	2936
1415	2938
1384	2940
1402	2944
1455	2946
1478	2949
1479	2951
1450	2953
1429	2956
1471	2958
1523	2961
1534	2963
1512	2965
1491	2968
1481	2970
1488	2973
1513	2975
1528	2977
1518	2980
1483	2982
1471	2985
1511	2988
1531	2990
1502	2993
1488	2995
1503	2998
1528	3000
1532	3003
1504	3005
1455	3007
1422	3010
1408	3012
1433	3015
1438	3017
1478	3019
1490	3022
1470	3024
1488	3027
1501	3030
1497	3032
1474	3035
1448	3037
1480	3040
1514	3042
1518	3044
1473	3047
1442	3049
1459	3052
1473	3054
1498	3056
1501	3059
1501	3061
1492	3064
1490	3066
1476	3069
1473	3072
1478	3074
1519	3077
1502	3079
1478	3082
1463	3084
1497	3086
1534	3089
1543	3091
1521	3094
1474	3096
1436	3098
1454	3101
1525	3103
1550	3106
1524	3108
1493	3110
1483	3113
1490	3116
1523	3119
1557	3121
1548	3123
1482	3126
1432	3128
1417	3131
1454	3133
1514	3136
1532	3138
1512	3140
1482	3143
1455	3145
1423	3148
1429	3150
1458	3152
1503	3155
1516	3158
1497	3161
1481	3163
1458	3165
1440	3168
1452	3170
1460	3173
1506	3175
1540	3177
1526	3180
1501	3182
1474	3185
1438	3187
1417	3189
1483	3192
1524	3194
1517	3197
1505	3200
1511	3203
1549	3205
1539	3207
1496	3210
1475	3212
1472	3215
1454	3217
1449	3219
1471	3222
1525	3224
1539	3227
1501	3229
1484	3231
1508	3234
1504	3236
1471	3239
1471	3241
1486	3244
1509	3247
1514	3249
1518	3252
1520	3254
1504	3256
1493	3259
1474	3261
1482	3264
1532	3266
1557	3268
1537	3271
1515	3273
1499	3276
1498	3278
1491	3280
1494	3283
1499	3286
1489	3289
1480	3291
1511	3293
1512	3296
1501	3298
1480	3301
1477	3303
1481	3306
1463	3308
1449	3310
1474	3313
1485	3315
1483	3318
1469	3320
1490	3322
1506	3325
1481	3328
1466	3331
1485	3333
1495	3335
1492	3338
1490	3340
1479	3343
1468	3345
1473	3347
1484	3350
1505	3352
1546	3355
1595	3357
1595	3359
1544	3362
1499	3364
1481	3367
1527	3369
1531	3372
1521	3375
1504	3377
1500	3380
1486	3382
1464	3384
1489	3387
1495	3389
1508	3392
1508	3394
1529	3397
1528	3399
1506	3401
1475	3404
1499	3406
1514	3409
1501	3411
1472	3414
1503	3417
1567	3419
1569	3422
1508	3424
1456	3426
1445	3429
1452	3431
1469	3434
1473	3436
1548	3438
1585	3441
1565	3443
1498	3446
1482	3448
1472	3450
1475	3453
1482	3456
1498	3459
1498	3461
1531	3463
1540	3466
1532	3468
1503	3471
1484	3473
1469	3475
1469	3478
1475	3480
1461	3483
1460	3485
1473	3488
1497	3490
1513	3492
1498	3495
1511	3497
1541	3501
1538	3503
1502	3505
1462	3508
1446	3510
1447	3513
1484	3515
1502	3517
1512	3520
1518	3522
1496	3525
1458	3527
1462	3529
1501	3532
1513	3534
1494	3537
1480	3539
1494	3542
1507	3545
1529	3547
1516	3550
1490	3552
1472	3554
1488	3557
1527	3559
1526	3562
1497	3564
1474	3567
1487	3569
1537	3571
1558	3574
1554	3576
1529	3579
1512	3581
1502	3584
1515	3587
1524	3589
1508	3592
1507	3594
1500	3596
1530	3599
1581	3601
1584	3604
1539	3606
1492	3608
1448	3611
1466	3613
1473	3616
1455	3618
1474	3620
1506	3623
1502	3625
1517	3629
1528	3631
1524	3634
1528	3636
1533	3638
1519	3641
1495	3643
1498	3646
1504	3648
1478	3650
1451	3653
1449	3655
1475	3658
1510	3660
1513	3662
1516	3665
1529	3667
1536	3671
1514	3673
1481	3675
1476	3678
1484	3680
1530	3683
1546	3685
1541	3687
1496	3690
1496	3692
1528	3695
1526	3697
1498	3699
1480	3702
1468	3704
1491	3707
1518	3709
1539	3713
1538	3715
1495	3717
1456	3720
1443	3722
1458	3725
1488	3727
1495	3729
1538	3732
1594	3734
1591	3737
1539	3739
1478	3741
1443	3744
1426	3746
1433	3749
1485	3751
1536	3753
1547	3757
1561	3759
1568	3762
1546	3764
1499	3766
1461	3769
1451	3771
1482	3774
1509	3776
1528	3778
1535	3781
1570	3783
1545	3786
1517	3788
1507	3791
1494	3793
1493	3795
1497	3799
1496	3801
1476	3804
1459	3806
1499	3808
1546	3811
1557	3813
1527	3816
1486	3818
1459	3820
1475	3823
1494	3825
1499	3828
1483	3830
1462	3832
1455	3835
1473	3837
1495	3841
1564	3843
1586	3845
1546	3848
1511	3850
1519	3853
1540	3855
1533	3858
1503	3860
1506	3862
1549	3865
1542	3867
1499	3870
1456	3872
1446	3874
1471	3877
1505	3879
1570	3883
1603	3885
1560	3887
1514	3890
1506	3892
1495	3895
1463	3897
1444	3899
1475	3902
1500	3904
1505	3907
1475	3909
1475	3911
1536	3914
1561	3916
1571	3919
1531	3921
1513	3923
1481	3927
1467	3929
1488	3932
1558	3934
1571	3937
1523	3939
1504	3941
1532	3944
1548	3946
1537	3949
1517	3951
1489	3953
1483	3956
1501	3958
1510	3961
1550	3963
1548	3965
1529	3969
1490	3971
1464	3974
1476	3976
1507	3978
1520	3981
1538	3983
1553	3986
1555	3988
1554	3990
1553	3993
1537	3995
1517	3998
1510	4000
1507	4002
1508	4005
1522	4007
1531	4011
1560	4013
1568	4016
1556	4018
1548	4020
1568	4023
1571	4025
1540	4028
1516	4030
1512	4032
1516	4035
1538	4037
1565	4040
1586	4042
1586	4044
1581	4047
1581	4049
1583	4052
1553	4055
1526	4057
1511	4060
1527	4062
1551	4065
1548	4067
1542	4069
1535	4072
1528	4074
1517	4077
1547	4079
1556	4081
1543	4084
1515	4086
1510	4089
1514	4091
1541	4093
1562	4097
1576	4099
1579	4102
1595	4104
1588	4107
1567	4109
1561	4111
1557	4114
1540	4116
1501	4119
1487	4121
1511	4123
1596	4126
1615	4128
1582	4131
1532	4133
1518	4135
1515	4139
1574	4141
1596	4144
1575	4146
1554	4148
1524	4151
1520	4153
1547	4156
1564	4158
1568	4160
1556	4163
1546	4165
1555	4168
1556	4170
1582	4172
1649	4175
1671	4177
1618	4180
1549	4183
1523	4186
1558	4188
1603	4190
1608	4193
1583	4195
1591	4198
1591	4200
1567	4202
1543	4205
1582	4207
1585	4210
1564	4212
1554	4214
1592	4217
1650	4219
1661	4222
1631	4225
1589	4227
1575	4230
1568	4232
1570	4235
1577	4237
1587	4239
1586	4242
1601	4244
1598	4247
1577	4249
1571	4251
1559	4254
1546	4256
1536	4259
1566	4261
1578	4264
1577	4267
1550	4269
1532	4272
1527	4274
1536	4277
1576	4279
1601	4281
1583	4284
1553	4286
1576	4289
1605	4291
1618	4293
1609	4296
1628	4298
1656	4301
1643	4303
1584	4305
1518	4308
1491	4311
1494	4314
1515	4316
1537	4318
1553	4321
1586	4323
1642	4326
1636	4328
1589	4330
1535	4333
1525	4335
1534	4338
1533	4340
1550	4343
1564	4345
1610	4347
1626	4350
1611	4353
1586	4356
1574	4358
1608	4360
1616	4363
1596	4365
1581	4368
1553	4370
1524	4372
1498	4375
1502	4377
1513	4380
1543	4382
1582	4384
1586	4387
1583	4389
1596	4392
1608	4395
1575	4397
1530	4400
1513	4402
1523	4405
1549	4407
1562	4409
1544	4412
1553	4414
1600	4417
1624	4419
1614	4422
1587	4424
1561	4426
1556	4429
1551	4431
1541	4434
1578	4436
1608	4439
1589	4442
1564	4444
1528	4447
1538	4449
1560	4451
1554	4454
1546	4456
1540	4459
1543	4461
1574	4463
1589	4466
1588	4468
1585	4471
1572	4473
1554	4475
1557	4478
1566	4481
1556	4484
1554	4486
1588	4488
1614	4491
1597	4493
1565	4496
1585	4498
1597	4501
1575	4503
1534	4505
1521	4508
1550	4510
1560	4513
1573	4515
1557	4517
1544	4520
1567	4523
1584	4526
1570	4528
1539	4530
1529	4533
1531	4535
1540	4538
1539	4540
1541	4542
1569	4545
1585	4547
1567	4550
1533	4552
1508	4554
1561	4557
1600	4559
1606	4562
1576	4564
1546	4568
1513	4570
1495	4572
1481	4575
1507	4577
1517	4580
1535	4582
1546	4584
1568	4587
1592	4589
1592	4592
1563	4594
1518	4596
1495	4599
1533	4601
1564	4604
1586	4606
1587	4609
1571	4612
1522	4614
1512	4617
1519	4619
1511	4621
1493	4624
1473	4626
1514	4629
1569	4631
1577	4633
1535	4636
1514	4638
1541	4641
1571	4643
1564	4646
1562	4648
1568	4651
1553	4654
1513	4656
1482	4659
1474	4661
1489	4663
1536	4666
1559	4668
1557	4671
1526	4673
1525	4675
1540	4678
1557	4680
1560	4683
1528	4685
1485	4687
1477	4690
1505	4692
1523	4696
1546	4698
1583	4700
1587	4703
1561	4705
1538	4708
1537	4710
1544	4713
1538	4715
1511	4717
1499	4720
1525	4722
1538	4725
1546	4727
1554	4729
1539	4732
1535	4734
1572	4738
1574	4740
1555	4742
1495	4745
1445	4747
1422	4750
1423	4752
1465	4754
1497	4757
1495	4759
1501	4762
1549	4764
1598	4766
1590	4769
1541	4771
1484	4774
1454	4776
1467	4780
1495	4782
1510	4784
1516	4787
1492	4789
1468	4792
1453	4794
1446	4796
1487	4799
1514	4801
1501	4804
1512	4806
1528	4808
1514	4811
1478	4813
1438	4816
1453	4818
1488	4820
1493	4824
1504	4826
1478	4829
1463	4831
1491	4833
1539	4836
1547	4838
1514	4841
1484	4843
1477	4845
1457	4848
1458	4850
1451	4853
1458	4855
1478	4858
1468	4860
1452	4862
1456	4866
1493	4868
1512	4871
1496	4873
1471	4875
1448	4878
1429	4880
1409	4883
1395	4885
1415	4887
1469	4890
1503	4892
1524	4895
1510	4897
1505	4899
1511	4902
1522	4904
1522	4908
1500	4910
1485	4912
1479	4915
1458	4917
1443	4920
1441	4922
1441	4924
1420	4927
1418	4929
1454	4932
1485	4934
1501	4936
1511	4939
1499	4941
1460	4944
1426	4946
1417	4950
1444	4952
1463	4954
1479	4957
1491	4959
1504	4962
1507	4964
1485	4966
1507	4969
1563	4971
1575	4974
1532	4976
1470	4978
1439	4981
1456	4983
1457	4986
1452	4988
1449	4990
1440	4994
1425	4996
1419	4999
1454	5001
1501	5003
1520	5006
1507	5008
1470	5011
1449	5013
1441	5016
1499	5018
1521	5020
1475	5023
1430	5025
1426	5028
1437	5030
1414	5032
1427	5036
1473	5038
1522	5041
1570	5043
1549	5045
1471	5048
1414	5050
1423	5053
1426	5055
1414	5057
1400	5060
1416	5062
1445	5065
1480	5067
1506	5069
1496	5072
1468	5074
1449	5078
1429	5080
1418	5082
1400	5085
1408	5087
1409	5090
1405	5092
1411	5095
1436	5097
1465	5099
1491	5102
1527	5104
1529	5107
1524	5109
1511	5111
1479	5114
1454	5116
1437	5120
1457	5122
1478	5124
1485	5127
1468	5129
1430	5132
1417	5134
1461	5136
1472	5139
1488	5141
1513	5144
1537	5146
1527	5148
1470	5151
1423	5153
1397	5156
1429	5158
1456	5161
1468	5164
1481	5166
1473	5169
1462	5171
1457	5174
1472	5176
1460	5178
1441	5181
1437	5183
1479	5186
1508	5188
1542	5190
1563	5193
1557	5195
1501	5198
1442	5200
1434	5202
1449	5206
1470	5208
1463	5211
1444	5213
1435	5215
1435	5218
1430	5220
1417	5223
1439	5225
1461	5227
1485	5230
1529	5232
1565	5235
1552	5237
1498	5240
1457	5242
1442	5244
1442	5248
1500	5250
1522	5253
1495	5255
1453	5257
1425	5260
1479	5262
1517	5265
1541	5267
1518	5269
1467	5272
1414	5274
1388	5277
1413	5279
1437	5281
1447	5284
1436	5286
1433	5289
1438	5292
1458	5294
1516	5297
1530	5299
1545	5302
1561	5304
1551	5306
1516	5309
1453	5311
1416	5314
1405	5316
1428	5318
1451	5321
1476	5323
1491	5326
1488	5328
1463	5331
1451	5334
1479	5336
1502	5339
1527	5341
1511	5344
1483	5346
1447	5348
1423	5351
1408	5353
1401	5356
1422	5358
1442	5360
1454	5363
1449	5365
1445	5368
1462	5370
1481	5372
1495	5376
1495	5378
1528	5381
1542	5383
1516	5385
1460	5388
1433	5390
1453	5393
1448	5395
1435	5397
1436	5400
1448	5402
1455	5405
1456	5407
1472	5410
1486	5412
1482	5414
1458	5417
1466	5420
1488	5423
1519	5425
1554	5427
1534	5430
1488	5432
1447	5435
1456	5437
1501	5439
1525	5442
1540	5444
1533	5447
1521	5449
1494	5451
1474	5454
1499	5456
1514	5459
1533	5462
1558	5464
1548	5467
1518	5469
1476	5472
1493	5474
1501	5476
1490	5479
1452	5481
1432	5484
1454	5486
1470	5489
1472	5491
1458	5493
1440	5496
1437	5498
1453	5501
1482	5504
1483	5506
1469	5509
1501	5511
1556	5514
1583	5516
1558	5518
1501	5521
1477	5523
1471	5526
1451	5528
1421	5530
1427	5533
1456	5535
1513	5538
1549	5540
1541	5542
1496	5545
1455	5548
1443	5551
1485	5553
1526	5555
1533	5558
1532	5560
1517	5563
1489	5565
1450	5568
1471	5570
1506	5572
1515	5575
1480	5577
1458	5580
1493	5582
1533	5584
1551	5587
1502	5590
1463	5593
1437	5595
1442	5597
1441	5600
1442	5602
1446	5605
1455	5607
1446	5609
1490	5612
1521	5614
1517	5617
1494	5619
1486	5621
1499	5624
1486	5626
1481	5629
1501	5632
1529	5634
1529	5637
1506	5639
1475	5642
1455	5644
1444	5647
1436	5649
1419	5651
1405	5654
1421	5656
1500	5659
1537	5661
1525	5663
1478	5666
1458	5668
1449	5671
1494	5673
1515	5676
1508	5679
1487	5681
1467	5684
1477	5686
1464	5688
1441	5691
1426	5693
1425	5696
1455	5698
1499	5700
1523	5703
1532	5705
1520	5708
1478	5710
1426	5712
1420	5715
1430	5718
1426	5721
1440	5723
1510	5726
1545	5728
1515	5730
1475	5733
1434	5735
1418	5738
1443	5740
1520	5742
1548	5745
1553	5747
1523	5750
1491	5752
1497	5754
1548	5757
1565	5760
1540	5763
1482	5765
1497	5767
1555	5770
1564	5772
1536	5775
1478	5777
1425	5779
1416	5782
1433	5784
1443	5787
1431	5789
1442	5792
1483	5794
1491	5796
1466	5799
1448	5801
1455	5805
1440	5807
1422	5809
1416	5812
1431	5814
1454	5817
1489	5819
1509	5821
1511	5824
1495	5826
1488	5829
1533	5831
1576	5833
1569	5836
1505	5838
1462	5841
1463	5843
1484	5846
1507	5849
1512	5851
1505	5854
1466	5856
1435	5858
1438	5861
1459	5863
1481	5866
1479	5868
1456	5871
1427	5873
1414	5875
1433	5878
1500	5880
1531	5883
1515	5885
1494	5888
1455	5891
1430	5893
1436	5896
1453	5898
1463	5900
1482	5903
1504	5905
1489	5908
1490	5910
1516	5912
1530	5915
1543	5917
1535	5920
1510	5922
1474	5924
1452	5927
1455	5929
1456	5933
1452	5935
1448	5938
1454	5940
1456	5942
1464	5945
1452	5947
1450	5950
1479	5952
1503	5954
1472	5957
1452	5959
1461	5962
1475	5964
1498	5966
1541	5969
1532	5971
1502	5975
1455	5977
1428	5979
1429	5982
1447	5984
1457	5987
1456	5989
1436	5991
1429	5994
1436	5996
1440	5999
1466	6001
1492	6003
1482	6006
1450	6008
1418	6011
1395	6013
1392	6017
1399	6019
1437	6021
1492	6024
1512	6026
1494	6029
1479	6031
1451	6033
1436	6036
1480	6038
1531	6041
1547	6043
1511	6045
1461	6048
1433	6050
1419	6053
1426	6055
1443	6057
1442	6061
1439	6063
1431	6066
1433	6068
1450	6070
1453	6073
1427	6075
1406	6078
1408	6080
1441	6083
1496	6085
1496	6087
1449	6090
1396	6092
1372	6095
1422	6097
1477	6099
1478	6103
1438	6105
1415	6108
1404	6110
1396	6112
1405	6115
1462	6117
1510	6120
1510	6122
1504	6124
1522	6127
1524	6129
1501	6132
1486	6134
1480	6136
1492	6139
1493	6141
1471	6145
1442	6147
1414	6149
1428	6152
1453	6154
1462	6157
1448	6159
1418	6162
1418	6164
1465	6166
1485	6169
1480	6171
1465	6174
1466	6176
1483	6178
1523	6181
1505	6183
1473	6187
1413	6189
1387	6191
1416	6194
1442	6196
1448	6199
1461	6201
1498	6203
1490	6206
1435	6208
1431	6211
1454	6213
1477	6215
1455	6218
1415	6220
1383	6223
1378	6225
1404	6228
1425	6231
1420	6233
1401	6236
1404	6238
1458	6241
1539	6243
1572	6245
1527	6248
1470	6250
1408	6253
1386	6255
1415	6257
1470	6260
1494	6262
1503	6265
1465	6267
1415	6269
1389	6273
1388	6275
1404	6278
1449	6280
1457	6282
1440	6285
1417	6287
1403	6290
1401	6292
1416	6295
1452	6297
1473	6299
1473	6302
1490	6304
1500	6307
1495	6309
1466	6311
1454	6315
1436	6317
1419	6320
1423	6322
1439	6324
1446	6327
1447	6329
1447	6332
1440	6334
1429	6336
1423	6339
1423	6341
1445	6344
1466	6346
1467	6348
1460	6351
1452	6353
1450	6356
1446	6359
1444	6362
1451	6364
1465	6366
1470	6369
1472	6371
1472	6374
1488	6376
1522	6378
1535	6381
1533	6383
1538	6386
1551	6388
1550	6390
1542	6393
1524	6395
1514	6398
1500	6401
1498	6403
1505	6406
1506	6408
1485	6411
1468	6413
1475	6415
1487	6418
1481	6420
1466	6423
1452	6425
1446	6427
1444	6430
1443	6432
1442	6435
1446	6437
1454	6440
1461	6443
1464	6445
1469	6448
1471	6450
1471	6453
1469	6455
1470	6457
1478	6460
1495	6462
1508	6465
1518	6467
1525	6469
1534	6472
1531	6474
1523	6477
1519	6479
1526	6481
1541	6484
1526	6487
1503	6490
1484	6492
1471	6494
1459	6497
1454	6499
1457	6502
1467	6504
1474	6506
1477	6509
1476	6511
1473	6514
1472	6516
1474	6518
1473	6521
1470	6523
1466	6526
1463	6529
1462	6532
1462	6534
1463	6536
1465	6539
1467	6541
1470	6544
1473	6546
1478	6548
1481	6551
1482	6553
1479	6556
1475	6558
1476	6560
1478	6563
1482	6565
1484	6568
1490	6571
1499	6573
1505	6576
1500	6578
1494	6581
1488	6583
1486	6585
1485	6588
1487	6590
1491	6593
1495	6595
1498	6597
1501	6600
1505	6602
1507	6605
1506	6607
1504	6609
1499	6612
1494	6615
1491	6618
1490	6620
1489	6623
1488	6625
1488	6627
1489	6630
1490	6632
1490	6635
1490	6637
1490	6639
1490	6642
1490	6644
1490	6647
1490	6649
1490	6651
1490	6654
1491	6657
1492	6660
1492	6662
1490	6664
1489	6667
1489	6669
1488	6672
1487	6674
1486	6676
1486	6679
1487	6681
1487	6684
1486	6686
1486	6688
1486	6691
1486	6693
1486	6696
1487	6699
1489	6701
1492	6704
1494	6706
1495	6709
1496	6711
1495	6714
1493	6716
1491	6718
1490	6721
1490	6723
1489	6726
1490	6728
1490	6730
1490	6733
1490	6735
1490	6738
1490	6740
1491	6743
1491	6746
1491	6748
1491	6751
1491	6753
1491	6755
1490	6758
1490	6760
1490	6763
1490	6765
1490	6767
1491	6770
1497	6772
1504	6775
1508	6777
1507	6779
1504	6782
1498	6785
1494	6788
1492	6790
1491	6793
1491	6795
1491	6797
1492	6800
1494	6802
1494	6805
1494	6807
1495	6809
1496	6812
1497	6814
1497	6817
1498	6819
1499	6821
1499	6824
1500	6827
1500	6830
1500	6832
1500	6834
1500	6837
1500	6839
1500	6842
1500	6844
1500	6846
1500	6849
1500	6851
1500	6854
1501	6856
1503	6859
1503	6861
1501	6863
1501	6866
1501	6868
1501	6872
1502	6874
1503	6876
1504	6879
1505	6881
1507	6884
1509	6886
1509	6888
1504	6891
1500	6893
1497	6896
1495	6898
1493	6900
1491	6903
1491	6905
1490	6908
1490	6910
1490	6913
1490	6916
1490	6918
1491	6921
1490	6923
1492	6925
1493	6928
1492	6930
1492	6933
1492	6935
1491	6938
1490	6940
1489	6942
1489	6945
1491	6947
1494	6950
1494	6952
1492	6955
1489	6958
1487	6960
1486	6963
1485	6965
1485	6967
1485	6970
1485	6972
1484	6975
1484	6977
1483	6979
1486	6982
1488	6984
1489	6987
1487	6989
1483	6991
1481	6994
1480	6996
1478	7000
1476	7002
1475	7004
1475	7007
1474	7009
1474	7012
1474	7014
1474	7017
1474	7019
1474	7021
1474	7024
1476	7026
1477	7029
1481	7031
1484	7033
1485	7036
1486	7038
1488	7042
1489	7044
1486	7046
1485	7049
1483	7051
1481	7054
1480	7056
1478	7058
1476	7061
1475	7063
1474	7066
1474	7068
1474	7070
1475	7073
1478	7075
1480	7078
1480	7080
1478	7083
1476	7086
1476	7088
1475	7091
1476	7093
1476	7096
1478	7098
1478	7100
1480	7103
1485	7105
1492	7108
1493	7110
1490	7112
1487	7115
1486	7117
1486	7120
1486	7122
1486	7124
1486	7128
1486	7130
1486	7133
1486	7135
1486	7137
1485	7140
1485	7142
1485	7145
1485	7147
1485	7149
1485	7152
1486	7154
1488	7157
1491	7159
1494	7162
1497	7164
1499	7166
1501	7170
1503	7172
1501	7175
1499	7177
1497	7179
1494	7182
1494	7184
1494	7187
1494	7189
1494	7191
1494	7194
1493	7196
1493	7199
1492	7201
1492	7203
1491	7206
1491	7208
1492	7212
1493	7214
1494	7216
1496	7219
1497	7221
1498	7224
1497	7226
1497	7229
1496	7231
1497	7233
1497	7236
1497	7238
1498	7241
1498	7243
1499	7245
1499	7248
1499	7250
1501	7254
1504	7256
1511	7258
1516	7261
1515	7263
1510	7266
1505	7268
1501	7270
1498	7273
1496	7275
1494	7278
1493	7280
1493	7282
1494	7285
1495	7287
1495	7290
1494	7292
1493	7294
1493	7298
1493	7300
1492	7303
1490	7305
1490	7307
1489	7310
1489	7312
1489	7315
1489	7317
1490	7320
1490	7322
1492	7324
1495	7327
1496	7329
1495	7332
1494	7334
1493	7336
1492	7340
1491	7342
1490	7345
1490	7347
1490	7349
1490	7352
1490	7354
1492	7357
1494	7359
1494	7361
1494	7364
1496	7366
1497	7369
1498	7371
1497	7373
1495	7376
1493	7378
1492	7382
1491	7384
1490	7387
1490	7389
1489	7391
1488	7394
1488	7396
1488	7399
1488	7401
1488	7403
1488	7406
1488	7408
1488	7411
1488	7413
1488	7415
1488	7418
1488	7420
1489	7424
1489	7426
1492	7428
1495	7431
1495	7433
1494	7436
1493	7438
1492	7440
1491	7443
1491	7445
1490	7448
1489	7450
1488	7453
1487	7455
1486	7457
1488	7460
1490	7462
1491	7465
1491	7468
1491	7470
1491	7473
1490	7475
1489	7478
1488	7480
1487	7482
1486	7485
1486	7487
1486	7490
1486	7492
1486	7494
1487	7497
1487	7499
1488	7502
1489	7504
1490	7506
1491	7510
1492	7512
1493	7515
1494	7517
1494	7520
1494	7522
1494	7524
1493	7527
1494	7529
1494	7532
1495	7534
1494	7536
1495	7539
1495	7541
1495	7544
1494	7546
1494	7548
1494	7552
1495	7554
1497	7557
1499	7559
1499	7561
1498	7564
1497	7566
1497	7569
1497	7571
1498	7573
1501	7576
1501	7578
1499	7581
1497	7583
1495	7586
1495	7588
1495	7590
1495	7593
1496	7596
1498	7599
1498	7601
1497	7603
1495	7606
1494	7608
1493	7611
1493	7613
1492	7615
1493	7618
1493	7620
1494	7623
1495	7625
1495	7627
1495	7630
1493	7632
1492	7635
1492	7638
1492	7640
1492	7643
1492	7645
1492	7648
1492	7650
1492	7653
1492	7655
1493	7657
1495	7660
1497	7662
1498	7665
1497	7667
1499	7669
1498	7672
1496	7674
1496	7677
1497	7680
1497	7682
1497	7685
1496	7687
1495	7690
1496	7692
1496	7694
1497	7697
1497	7699
1495	7702
1491	7704
1489	7706
1488	7709
1488	7711
1487	7714
1488	7716
1488	7718
1489	7721
1490	7724
1490	7727
1491	7729
1491	7732
1493	7734
1495	7736
1497	7739
1496	7741
1496	7744
1495	7746
1497	7748
1501	7751
1501	7753
1498	7756
1496	7758
1494	7760
1492	7763
1491	7766
1490	7769
1488	7771
1488	7773
1488	7776
1488	7778
1488	7781
1489	7783
1488	7785
1488	7788
1488	7790
1488	7793
1489	7795
1490	7798
1491	7800
1493	7802
1494	7805
1498	7808
1500	7811
1501	7813
1500	7815
1498	7818
1494	7820
1492	7823
1491	7825
1491	7827
1492	7830
1492	7832
1492	7835
1492	7837
1492	7839
1491	7842
1490	7844
1489	7847
1488	7849
1488	7852
1488	7855
1487	7857
1487	7860
1487	7862
1487	7865
1487	7867
1487	7869
1486	7872
1486	7874
1486	7877
1487	7879
1488	7881
1489	7884
1489	7886
1489	7889
1490	7891
1491	7894
1492	7897
1493	7899
1493	7902
1492	7904
1492	7906
1491	7909
1489	7911
1487	7914
1485	7916
1484	7918
1485	7921
1485	7923
1485	7926
1485	7928
1485	7931
1485	7933
1484	7936
1484	7939
1484	7941
1484	7944
1484	7946
1484	7948
1483	7951
1484	7953
1485	7956
1486	7958
1487	7960
1488	7963
1491	7965
1491	7968
1490	7970
1489	7972
1489	7975
1491	7977
1492	7981
1492	7983
1491	7985
1491	7988
1492	7990
1492	7993
1492	7995
1492	7998
1493	8000
1493	8002
1492	8005
1493	8007
1493	8010
1494	8012
1495	8014
1497	8017
1497	8019
1498	8023
1498	8025
1500	8027
1502	8030
1502	8032
1501	8035
1500	8037
1500	8039
1500	8042
1500	8044
1499	8047
1499	8049
1498	8051
1497	8054
1497	8056
1497	8059
1497	8061
1497	8064
1497	8067
1496	8069
1496	8072
1496	8074
1496	8076
1496	8079
1497	8081
1498	8084
1502	8086
1505	8089
1506	8091
1504	8093
1502	8096
1499	8098
1496	8101
1494	8103
1495	8105
1495	8109
1495	8111
1494	8114
1493	8116
1491	8118
1492	8121
1493	8123
1492	8126
1491	8128
1491	8130
1491	8133
1491	8135
1491	8138
1492	8140
1492	8142
1493	8145
1493	8147
1494	8151
1494	8153
1495	8155
1496	8158
1496	8160
1498	8163
1499	8165
1500	8167
1501	8170
1502	8172
1503	8175
1504	8177
1505	8180
1509	8182
1511	8184
1512	8187
1510	8189
1506	8193
1503	8195
1501	8197
