1508	I2C Verbindung gefunden!.
1470	2
1469	4
1471	7
1470	9
1472	11
1475	13
1471	16
1472	18
1474	20
1471	23
1470	25
1494	27
1513	30
1517	32
1514	34
1509	36
1498	39
1483	41
1479	44
1482	47
1482	49
1477	51
1465	54
1482	56
1501	58
1504	61
1499	63
1492	65
1482	67
1475	70
1466	72
1465	74
1472	77
1482	79
1478	81
1474	84
1481	87
1498	89
1495	91
1480	94
1471	96
1482	98
1492	101
1490	103
1485	105
1482	108
1485	110
1479	112
1472	115
1473	117
1472	120
1473	122
1481	124
1490	128
1497	130
1501	132
1506	135
1513	137
1510	139
1506	142
1497	144
1499	146
1498	149
1496	151
1495	153
1502	156
1507	158
1508	161
1514	163
1514	165
1505	168
1493	171
1487	173
1486	176
1480	178
1476	180
1488	183
1497	185
1500	187
1499	190
1496	192
1492	194
1491	197
1496	199
1495	202
1497	204
1495	206
1490	209
1488	211
1484	214
1483	217
1486	219
1491	221
1492	224
1496	226
1496	228
1496	231
1492	233
1506	235
1512	238
1515	240
1503	243
1493	245
1492	247
1495	250
1501	252
1501	254
1497	258
1492	260
1489	262
1486	265
1484	267
1493	269
1510	272
1515	274
1501	276
1487	279
1478	281
1475	284
1483	286
1489	288
1493	291
1496	293
1511	295
1512	299
1504	301
1493	303
1485	306
1486	308
1494	310
1507	313
1507	315
1502	318
1496	320
1487	322
1478	325
1470	327
1467	329
1468	332
1468	334
1470	336
1474	339
1474	342
1475	344
1472	347
1469	349
1473	351
1484	354
1489	356
1490	359
1484	361
1479	363
1485	366
1495	368
1499	370
1498	373
1491	375
1485	377
1480	380
1473	382
1469	385
1466	388
1466	390
1470	393
1471	395
1474	397
1486	400
1492	402
1491	404
1482	407
1474	409
1469	411
1465	414
1461	416
1457	418
1458	421
1468	423
1490	425
1499	429
1501	431
1500	434
1508	436
1508	438
1496	441
1480	443
1472	445
1468	448
1470	450
1479	452
1479	455
1486	457
1493	459
1491	462
1489	464
1481	466
1494	470
1495	472
1492	475
1486	477
1475	479
1474	482
1483	484
1490	486
1487	489
1485	491
1479	493
1475	496
1477	498
1474	500
1469	503
1465	505
1470	508
1475	510
1480	513
1482	516
1484	518
1491	520
1497	523
1506	525
1506	527
1500	530
1498	532
1492	534
1486	537
1479	539
1482	541
1488	544
1500	546
1496	549
1499	551
1500	553
1499	557
1517	559
1521	561
1509	564
1495	566
1483	568
1481	571
1477	573
1474	575
1477	578
1476	580
1488	582
1503	585
1514	587
1521	590
1509	592
1491	594
1486	598
1489	600
1492	602
1489	605
1487	607
1481	609
1477	612
1482	614
1485	616
1501	619
1508	621
1504	624
1492	626
1484	628
1478	631
1479	633
1481	635
1490	638
1491	641
1490	643
1487	646
1487	648
1490	650
1502	653
1504	655
1500	657
1497	660
1495	662
1492	665
1488	667
1485	669
1483	672
1490	674
1507	676
1521	679
1517	681
1535	684
1540	687
1523	689
1503	691
1492	694
1492	696
1521	699
1528	701
1518	703
1499	706
1477	708
1469	710
1470	713
1471	715
1466	717
1464	720
1466	722
1463	724
1464	728
1466	730
1467	732
1470	735
1483	737
1493	740
1513	742
1529	744
1537	747
1534	749
1528	751
1520	754
1508	756
1495	758
1493	761
1499	763
1511	765
1509	769
1497	771
1494	774
1505	776
1504	778
1495	781
1489	783
1485	785
1483	788
1477	790
1472	792
1474	795
1482	797
1487	799
1492	802
1498	804
1500	806
1498	809
1497	812
1496	815
1494	817
1494	819
1497	822
1496	824
1494	826
1502	829
1515	831
1515	833
1522	836
1545	838
1540	840
1530	843
1538	845
1529	848
1512	850
1501	852
1493	856
1486	858
1481	860
1483	863
1482	865
1486	867
1486	870
1483	872
1480	874
1479	877
1488	879
1491	881
1489	884
1482	886
1475	889
1467	891
1471	893
1497	897
1506	899
1514	901
1538	904
1545	906
1534	908
1523	911
1526	913
1526	915
1542	918
1567	920
1550	922
1526	925
1497	927
1478	930
1474	932
1469	934
1463	937
1467	940
1474	942
1479	945
1473	947
1467	949
1466	952
1471	954
1491	956
1496	959
1498	961
1511	964
1507	966
1504	968
1497	971
1486	973
1485	975
1489	978
1487	980
1487	983
1487	986
1505	988
1529	990
1526	993
1525	995
1526	997
1529	1000
1548	1002
1542	1005
1521	1007
1504	1009
1499	1012
1486	1014
1481	1017
1499	1019
1508	1021
1502	1025
1493	1027
1486	1030
1483	1032
1482	1035
1480	1037
1476	1039
1477	1042
1480	1044
1485	1047
1486	1049
1487	1051
1490	1054
1491	1056
1489	1059
1492	1061
1510	1063
1518	1067
1526	1069
1541	1072
1535	1074
1531	1076
1542	1079
1535	1081
1516	1084
1499	1086
1495	1088
1497	1091
1495	1093
1487	1096
1477	1098
1477	1100
1481	1103
1487	1105
1486	1108
1477	1111
1471	1113
1478	1116
1481	1118
1478	1121
1472	1123
1469	1126
1479	1128
1498	1130
1501	1133
1497	1135
1498	1138
1513	1140
1516	1142
1515	1145
1512	1147
1527	1150
1527	1153
1517	1155
1513	1158
1522	1160
1519	1163
1509	1165
1508	1167
1519	1170
1524	1172
1510	1175
1499	1177
1493	1179
1479	1182
1470	1184
1462	1187
1457	1189
1460	1192
1463	1195
1464	1197
1475	1200
1486	1202
1491	1205
1491	1207
1490	1209
1502	1212
1518	1214
1517	1217
1521	1219
1517	1221
1510	1224
1502	1226
1494	1229
1493	1231
1505	1233
1508	1236
1504	1239
1506	1242
1528	1244
1527	1246
1516	1249
1498	1251
1482	1254
1477	1256
1478	1258
1475	1261
1468	1263
1459	1266
1451	1268
1448	1271
1452	1273
1463	1275
1472	1278
1473	1281
1476	1284
1472	1286
1475	1288
1486	1291
1509	1293
1530	1296
1550	1298
1553	1300
1542	1303
1527	1305
1517	1308
1505	1310
1503	1312
1524	1315
1529	1317
1513	1320
1497	1323
1485	1325
1472	1328
1460	1330
1456	1333
1473	1335
1477	1337
1471	1340
1464	1342
1463	1345
1457	1347
1455	1349
1453	1352
1452	1354
1465	1357
1475	1359
1479	1361
1484	1364
1486	1367
1482	1370
1490	1372
1515	1375
1527	1377
1554	1379
1567	1382
1559	1384
1549	1387
1548	1389
1553	1391
1561	1394
1553	1396
1526	1399
1505	1401
1494	1403
1490	1406
1503	1409
1504	1412
1491	1414
1470	1416
1453	1419
1443	1421
1438	1424
1436	1426
1435	1428
1440	1431
1446	1433
1463	1436
1471	1438
1476	1440
1481	1443
1478	1445
1481	1448
1512	1451
1526	1453
1518	1456
1503	1458
1491	1461
1487	1463
1499	1466
1499	1468
1483	1470
1478	1473
1492	1475
1514	1478
1524	1480
1508	1482
1498	1485
1486	1487
1476	1490
1466	1492
1459	1495
1456	1498
1459	1500
1465	1503
1476	1505
1482	1507
1482	1510
1488	1512
1488	1515
1482	1517
1498	1519
1526	1522
1522	1524
1503	1527
1490	1529
1475	1531
1472	1534
1481	1537
1489	1540
1486	1542
1491	1544
1496	1547
1490	1549
1477	1552
1478	1554
1484	1557
1486	1559
1486	1561
1479	1564
1484	1566
1493	1569
1497	1571
1483	1573
1468	1576
1463	1579
1464	1582
1475	1584
1481	1586
1475	1589
1483	1591
1495	1594
1515	1596
1510	1598
1501	1601
1501	1603
1494	1606
1488	1608
1491	1610
1507	1613
1502	1615
1502	1618
1503	1620
1497	1623
1494	1626
1503	1628
1522	1631
1517	1633
1497	1636
1483	1638
1499	1640
1520	1643
1512	1645
1490	1648
1470	1650
1470	1652
1482	1655
1489	1657
1483	1660
1477	1662
1488	1665
1508	1668
1506	1670
1489	1673
1479	1675
1484	1677
1483	1680
1477	1682
1472	1685
1472	1687
1472	1689
1474	1692
1475	1694
1481	1697
1482	1699
1495	1701
1522	1704
1521	1707
1510	1710
1492	1712
1485	1714
1486	1717
1493	1719
1507	1722
1514	1724
1512	1726
1516	1729
1516	1731
1506	1734
1490	1736
1494	1739
1504	1741
1503	1743
1498	1746
1482	1748
1480	1752
1478	1754
1472	1756
1477	1759
1486	1761
1487	1764
1504	1766
1520	1768
1530	1771
1537	1773
1523	1776
1512	1778
1509	1780
1522	1783
1521	1785
1506	1788
1499	1790
1507	1793
1503	1796
1493	1798
1490	1801
1489	1803
1485	1805
1479	1808
1469	1810
1460	1813
1457	1815
1482	1817
1492	1820
1482	1822
1480	1825
1497	1827
1492	1829
1496	1832
1513	1835
1516	1838
1504	1840
1491	1843
1489	1845
1487	1847
1489	1850
1506	1852
1528	1855
1523	1857
1500	1859
1485	1862
1506	1864
1535	1867
1525	1869
1505	1871
1498	1874
1511	1876
1504	1880
1482	1882
1466	1884
1459	1887
1459	1889
1454	1892
1451	1894
1452	1896
1460	1899
1471	1901
1477	1904
1491	1906
1506	1908
1521	1911
1531	1913
1523	1916
1506	1918
1490	1921
1497	1924
1504	1926
1513	1929
1507	1931
1509	1934
1557	1936
1579	1938
1569	1941
1552	1943
1535	1946
1508	1948
1492	1950
1474	1953
1456	1955
1451	1958
1450	1960
1449	1963
1450	1966
1447	1968
1447	1971
1452	1973
1454	1975
1457	1978
1462	1980
1469	1983
1513	1985
1536	1987
1526	1990
1511	1992
1509	1995
1504	1997
1495	1999
1493	2002
1492	2004
1494	2008
1489	2010
1511	2012
1544	2015
1542	2017
1513	2020
1498	2022
1485	2024
1482	2027
1492	2029
1490	2032
1479	2034
1477	2037
1478	2039
1474	2041
1468	2044
1459	2046
1452	2050
1449	2052
1448	2054
1448	2057
1449	2059
1463	2062
1473	2064
1479	2066
1484	2069
1494	2071
1535	2074
1545	2076
1539	2078
1519	2081
1508	2083
1523	2086
1546	2088
1544	2091
1528	2094
1517	2096
1528	2099
1532	2101
1520	2103
1514	2106
1503	2108
1488	2111
1493	2113
1491	2115
1474	2118
1456	2120
1443	2123
1448	2125
1458	2128
1460	2130
1457	2132
1453	2136
1448	2138
1450	2141
1462	2143
1482	2145
1500	2148
1497	2150
1491	2153
1489	2155
1499	2157
1522	2160
1515	2162
1505	2165
1500	2167
1497	2169
1506	2172
1520	2174
1522	2178
1515	2180
1507	2182
1499	2185
1495	2187
1490	2190
1483	2192
1474	2194
1463	2197
1458	2199
1459	2202
1462	2204
1463	2207
1471	2209
1473	2211
1473	2214
1472	2216
1471	2220
1471	2222
1481	2224
1499	2227
1506	2229
1504	2232
1501	2234
1502	2236
1508	2239
1511	2241
1510	2244
1508	2246
1513	2248
1516	2251
1506	2253
1501	2256
1497	2258
1500	2260
1503	2264
1504	2266
1501	2269
1489	2271
1481	2273
1474	2276
1464	2278
1462	2281
1476	2283
1481	2286
1471	2288
1463	2290
1456	2293
1455	2295
1460	2298
1460	2300
1459	2302
1464	2306
1469	2308
1466	2311
1464	2313
1478	2315
1489	2318
1497	2320
1496	2323
1488	2325
1488	2327
1502	2330
1527	2332
1527	2335
1508	2337
1492	2339
1499	2342
1516	2344
1507	2348
1489	2350
1493	2352
1494	2355
1481	2357
1479	2360
1481	2362
1480	2365
1478	2367
1474	2369
1472	2372
1468	2374
1464	2377
1458	2379
1452	2381
1462	2384
1482	2386
1502	2390
1514	2392
1522	2394
1513	2397
1504	2399
1499	2402
1494	2404
1497	2406
1532	2409
1540	2411
1522	2414
1528	2416
1549	2418
1538	2421
1535	2423
1527	2426
1501	2428
1485	2430
1475	2434
1475	2436
1471	2439
1461	2441
1451	2444
1446	2446
1454	2448
1455	2451
1448	2453
1441	2456
1440	2458
1445	2460
1460	2463
1494	2465
1501	2468
1499	2470
1514	2472
1514	2476
1514	2478
1523	2481
1509	2483
1543	2485
1578	2488
1584	2490
1561	2493
1541	2495
1512	2497
1498	2500
1494	2502
1483	2505
1467	2507
1453	2509
1449	2512
1455	2514
1468	2518
1469	2520
1474	2522
1476	2525
1486	2527
1491	2530
1483	2532
1483	2535
1494	2537
1488	2539
1480	2542
1481	2544
1497	2547
1531	2549
1548	2551
1538	2554
1517	2556
1501	2560
1501	2562
1534	2564
1533	2567
1508	2569
1486	2572
1467	2574
1455	2576
1456	2579
1478	2581
1519	2584
1511	2586
1488	2588
1482	2591
1485	2593
1476	2596
1456	2598
1442	2600
1446	2604
1472	2606
1475	2609
1467	2611
1457	2613
1454	2616
1456	2618
1477	2621
1514	2623
1513	2626
1523	2628
1533	2630
1524	2633
1508	2635
1496	2638
1481	2640
1494	2642
1521	2646
1521	2648
1505	2651
1489	2653
1480	2655
1490	2658
1528	2660
1544	2663
1514	2665
1489	2667
1463	2670
1450	2672
1444	2675
1445	2677
1446	2679
1446	2682
1451	2684
1463	2688
1496	2690
1502	2692
1495	2695
1493	2697
1488	2700
1502	2702
1510	2704
1505	2707
1505	2709
1524	2712
1529	2714
1516	2717
1506	2719
1496	2721
1489	2724
1505	2726
1537	2729
1535	2732
1517	2734
1503	2737
1524	2739
1532	2742
1520	2744
1505	2746
1498	2749
1500	2751
1505	2754
1521	2756
1526	2758
1525	2761
1504	2763
1482	2766
1469	2768
1465	2770
1472	2774
1486	2776
1488	2779
1486	2781
1506	2783
1549	2786
1535	2788
1512	2791
1522	2793
1515	2795
1497	2798
1482	2800
1479	2803
1482	2805
1480	2808
1484	2810
1485	2812
1476	2816
1497	2818
1527	2821
1531	2823
1521	2825
1508	2828
1486	2830
1477	2833
1488	2835
1487	2837
1479	2840
1469	2842
1480	2845
1516	2847
1529	2849
1511	2852
1495	2854
1490	2857
1508	2860
1517	2862
1513	2865
1521	2867
1516	2870
1509	2872
1516	2874
1512	2877
1511	2879
1504	2882
1489	2884
1493	2887
1494	2889
1494	2891
1501	2894
1509	2896
1522	2899
1532	2902
1536	2904
1513	2907
1484	2909
1472	2912
1469	2914
1470	2916
1468	2919
1465	2921
1463	2924
1461	2926
1460	2928
1458	2931
1457	2933
1457	2936
1478	2938
1519	2940
1550	2944
1563	2946
1545	2949
1521	2951
1494	2953
1518	2956
1544	2958
1534	2961
1514	2963
1488	2966
1496	2968
1515	2970
1532	2973
1522	2975
1497	2978
1493	2980
1477	2982
1457	2985
1453	2988
1448	2991
1455	2993
1465	2995
1469	2998
1467	3000
1462	3003
1484	3005
1486	3007
1474	3010
1465	3012
1455	3015
1462	3017
1495	3019
1502	3022
1491	3024
1481	3027
1482	3030
1481	3032
1495	3035
1520	3037
1531	3040
1517	3042
1502	3045
1504	3047
1536	3049
1538	3052
1541	3054
1539	3057
1507	3059
1473	3061
1462	3064
1465	3066
1463	3069
1455	3072
1450	3074
1446	3077
1450	3079
1455	3082
1457	3084
1464	3086
1486	3089
1506	3091
1534	3094
1531	3096
1513	3098
1494	3101
1504	3103
1546	3106
1549	3108
1522	3110
1495	3113
1490	3116
1492	3119
1499	3121
1493	3124
1489	3126
1481	3128
1479	3131
1483	3133
1485	3136
1478	3138
1471	3140
1470	3143
1487	3145
1503	3148
1493	3150
1477	3152
1468	3155
1458	3158
1456	3161
1458	3163
1460	3165
1472	3168
1495	3170
1497	3173
1498	3175
1516	3177
1530	3180
1525	3182
1512	3185
1503	3187
1502	3190
1512	3192
1505	3194
1497	3197
1542	3200
1555	3203
1532	3205
1530	3207
1517	3210
1489	3212
1464	3215
1448	3217
1445	3219
1459	3222
1463	3224
1455	3227
1453	3229
1451	3231
1462	3234
1468	3236
1475	3239
1498	3241
1504	3244
1514	3247
1525	3249
1527	3252
1531	3254
1526	3256
1523	3259
1515	3261
1513	3264
1503	3266
1496	3268
1509	3271
1543	3273
1532	3276
1506	3278
1505	3280
1502	3283
1502	3286
1506	3289
1501	3291
1485	3294
1480	3296
1477	3298
1474	3301
1472	3303
1479	3306
1485	3308
1479	3310
1474	3313
1498	3315
1513	3318
1503	3320
1499	3322
1496	3325
1483	3328
1483	3331
1495	3333
1500	3335
1501	3338
1504	3340
1512	3343
1511	3345
1513	3347
1516	3350
1519	3352
1549	3355
1561	3357
1544	3359
1525	3362
1538	3364
1532	3367
1513	3369
1496	3373
1493	3375
1486	3377
1478	3380
1484	3382
1494	3385
1491	3387
1491	3389
1508	3392
1522	3394
1520	3397
1509	3399
1496	3401
1516	3404
1517	3406
1507	3409
1493	3411
1491	3414
1501	3417
1508	3419
1517	3422
1558	3424
1567	3426
1539	3429
1514	3431
1505	3434
1530	3436
1548	3438
1555	3441
1536	3443
1518	3446
1498	3448
1484	3451
1471	3453
1469	3456
1473	3459
1482	3461
1485	3464
1483	3466
1485	3468
1486	3471
1480	3473
1474	3476
1475	3478
1475	3480
1478	3483
1490	3485
1541	3488
1561	3490
1556	3492
1533	3495
1527	3497
1538	3501
1534	3503
1521	3505
1514	3508
1518	3510
1529	3513
1526	3515
1514	3517
1508	3520
1507	3522
1538	3525
1545	3527
1520	3530
1489	3532
1473	3534
1482	3537
1488	3539
1485	3543
1477	3545
1464	3547
1461	3550
1454	3552
1453	3555
1456	3557
1467	3559
1495	3562
1511	3564
1504	3567
1495	3569
1500	3571
1534	3574
1540	3576
1544	3579
1545	3581
1545	3584
1534	3587
1509	3589
1495	3592
1473	3594
1466	3596
1479	3599
1490	3601
1480	3604
1467	3606
1449	3609
1454	3611
1447	3613
1448	3616
1449	3618
1445	3621
1443	3623
1451	3625
1461	3629
1468	3631
1480	3634
1496	3636
1513	3638
1518	3641
1508	3643
1486	3646
1472	3648
1473	3650
1476	3653
1483	3655
1506	3658
1505	3660
1517	3662
1530	3665
1517	3667
1504	3671
1490	3673
1499	3675
1501	3678
1492	3680
1484	3683
1471	3685
1469	3687
1473	3690
1496	3692
1503	3695
1492	3697
1478	3700
1469	3702
1463	3704
1468	3707
1468	3709
1470	3713
1503	3715
1523	3717
1532	3720
1531	3722
1521	3725
1511	3727
1500	3729
1494	3732
1490	3734
1479	3737
1486	3739
1498	3741
1512	3744
1526	3746
1535	3749
1527	3751
1515	3753
1534	3757
1534	3759
1521	3762
1498	3764
1474	3767
1465	3769
1471	3771
1476	3774
1487	3776
1511	3779
1516	3781
1506	3783
1493	3786
1493	3788
1504	3791
1502	3793
1500	3795
1495	3799
1493	3801
1511	3804
1533	3806
1528	3808
1519	3811
1506	3813
1488	3816
1481	3818
1486	3820
1490	3823
1492	3825
1504	3828
1520	3830
1517	3832
1504	3835
1497	3837
1486	3841
1475	3843
1476	3846
1479	3848
1473	3850
1462	3853
1456	3855
1454	3858
1488	3860
1508	3862
1510	3865
1502	3867
1502	3870
1502	3872
1493	3874
1497	3877
1498	3879
1490	3883
1484	3885
1485	3887
1507	3890
1533	3892
1568	3895
1560	3897
1533	3899
1526	3902
1528	3904
1536	3907
1522	3909
1495	3911
1485	3914
1486	3916
1479	3919
1469	3921
1462	3924
1459	3927
1460	3929
1457	3932
1456	3934
1461	3937
1467	3939
1491	3941
1515	3944
1519	3946
1522	3949
1515	3951
1505	3953
1495	3956
1499	3958
1508	3961
1514	3963
1529	3965
1534	3969
1524	3971
1530	3974
1530	3976
1522	3978
1502	3981
1481	3983
1470	3986
1472	3988
1472	3990
1477	3993
1484	3995
1491	3998
1498	4000
1494	4003
1488	4005
1486	4007
1484	4011
1477	4013
1471	4016
1478	4018
1489	4020
1492	4023
1492	4025
1491	4028
1497	4030
1496	4032
1490	4035
1480	4037
1489	4040
1508	4042
1520	4044
1525	4047
1519	4049
1505	4052
1505	4055
1497	4057
1494	4060
1511	4062
1506	4065
1499	4067
1489	4069
1474	4072
1459	4074
1451	4077
1452	4079
1456	4081
1467	4084
1472	4086
1481	4089
1489	4091
1493	4093
1506	4097
1526	4099
1545	4102
1557	4104
1549	4107
1525	4109
1503	4111
1486	4114
1479	4116
1496	4119
1513	4121
1512	4123
1504	4126
1499	4128
1490	4131
1490	4133
1494	4135
1496	4139
1505	4141
1515	4144
1507	4146
1494	4148
1499	4151
1491	4153
1476	4156
1471	4158
1475	4160
1480	4163
1479	4165
1476	4168
1472	4170
1475	4172
1486	4175
1486	4177
1484	4180
1488	4183
1502	4186
1508	4188
1512	4190
1510	4193
1508	4195
1536	4198
1536	4200
1507	4202
1497	4205
1512	4207
1508	4210
1490	4212
1479	4214
1473	4217
1466	4219
1461	4222
1475	4225
1505	4227
1516	4230
1500	4232
1502	4235
1505	4237
1499	4239
1497	4242
1484	4244
1473	4247
1464	4249
1459	4251
1464	4254
1472	4256
1471	4259
1463	4261
1462	4263
1475	4267
1486	4269
1489	4272
1497	4274
1501	4277
1506	4279
1549	4281
1564	4284
1553	4286
1542	4289
1522	4291
1504	4293
1486	4296
1478	4298
1488	4301
1487	4303
1481	4305
1476	4308
1473	4311
1475	4314
1506	4316
1516	4318
1504	4321
1490	4323
1478	4326
1473	4328
1467	4330
1464	4333
1464	4335
1475	4338
1481	4340
1482	4343
1483	4345
1487	4347
1485	4350
1478	4353
1479	4356
1485	4358
1518	4360
1541	4363
1541	4365
1525	4368
1515	4370
1516	4372
1533	4375
1540	4377
1519	4380
1495	4382
1476	4384
1467	4387
1473	4389
1483	4392
1484	4395
1483	4397
1483	4400
1488	4402
1489	4405
1487	4407
1491	4409
1501	4412
1509	4414
1518	4417
1528	4419
1524	4422
1511	4424
1505	4426
1501	4429
1500	4431
1507	4434
1522	4436
1517	4439
1512	4442
1511	4444
1522	4447
1531	4449
1533	4451
1541	4454
1555	4456
1535	4459
1502	4461
1480	4463
1471	4466
1463	4468
1460	4471
1458	4473
1463	4475
1471	4478
1477	4481
1476	4484
1474	4486
1473	4488
1477	4491
1497	4493
1505	4496
1517	4498
1556	4500
1555	4503
1538	4505
1519	4508
1515	4510
1515	4513
1526	4515
1524	4517
1510	4520
1496	4523
1511	4526
1530	4528
1527	4530
1523	4533
1530	4535
1520	4538
1492	4540
1472	4542
1460	4545
1457	4547
1457	4550
1454	4552
1454	4554
1462	4557
1473	4559
1499	4562
1529	4564
1524	4568
1509	4570
1486	4572
1470	4575
1475	4577
1479	4580
1474	4582
1471	4584
1489	4587
1498	4589
1492	4592
1488	4594
1486	4596
1480	4599
1485	4601
1487	4604
1485	4606
1479	4609
1468	4612
1458	4614
1469	4617
1496	4619
1494	4621
1491	4624
1494	4626
1491	4629
1490	4631
1485	4633
1474	4636
1469	4638
1462	4641
1467	4643
1478	4646
1508	4648
1524	4651
1513	4654
1496	4656
1487	4659
1487	4661
1523	4663
1544	4666
1549	4668
1529	4671
1512	4673
1494	4675
1502	4678
1491	4680
1478	4683
1472	4685
1463	4687
1455	4690
1446	4692
1448	4696
1459	4698
1459	4700
1457	4703
1452	4705
1450	4708
1450	4710
1448	4713
1445	4715
1453	4717
1491	4720
1513	4722
1526	4725
1525	4727
1507	4729
1507	4732
1515	4734
1506	4738
1484	4740
1479	4742
1494	4745
1497	4747
1501	4750
1498	4752
1488	4754
1488	4757
1500	4759
1508	4762
1506	4764
1490	4766
1482	4769
1473	4771
1458	4774
1450	4776
1449	4780
1448	4782
1449	4784
1446	4787
1457	4789
1487	4792
1492	4794
1482	4796
1489	4799
1511	4801
1512	4804
1501	4806
1497	4808
1498	4811
1493	4813
1486	4816
1498	4818
1514	4820
1512	4824
1499	4826
1489	4829
1479	4831
1474	4833
1478	4836
1492	4838
1493	4841
1485	4843
1475	4845
1465	4848
1458	4850
1455	4853
1463	4855
1475	4857
1491	4860
1507	4862
1521	4866
1521	4868
1512	4871
1507	4873
1504	4875
1504	4878
1500	4880
1490	4883
1488	4885
1485	4887
1489	4890
1488	4892
1482	4895
1471	4897
1484	4899
1517	4902
1529	4904
1531	4908
1518	4910
1501	4912
1488	4915
1477	4917
1466	4920
1465	4922
1477	4924
1488	4927
1495	4929
1496	4932
1492	4934
1489	4936
1498	4939
1528	4941
1533	4944
1516	4946
1507	4950
1500	4952
1484	4954
1474	4957
1471	4959
1478	4962
1495	4964
1500	4966
1496	4969
1487	4971
1485	4974
1478	4976
1467	4978
1475	4981
1485	4983
1489	4986
1480	4988
1499	4990
1507	4994
1499	4996
1489	4999
1509	5001
1523	5003
1510	5006
1501	5008
1498	5011
1490	5013
1495	5016
1495	5018
1487	5020
1489	5023
1489	5025
1488	5028
1493	5030
1507	5032
1520	5036
1515	5038
1497	5041
1491	5043
1483	5045
1476	5048
1468	5050
1461	5053
1474	5055
1498	5057
1503	5060
1492	5062
1500	5065
1510	5067
1514	5069
1523	5072
1521	5074
1507	5078
1504	5080
1514	5083
1519	5085
1516	5087
1503	5090
1486	5092
1482	5095
1486	5097
1486	5099
1484	5102
1497	5104
1512	5107
1506	5109
1505	5111
1498	5114
1483	5116
1477	5120
1468	5122
1462	5124
1462	5127
1474	5129
1484	5132
1502	5134
1548	5136
1562	5139
1550	5141
1532	5144
1517	5146
1524	5149
1517	5151
1499	5153
1493	5156
1503	5158
1524	5161
1520	5164
1503	5166
1507	5169
1522	5171
1514	5174
1489	5176
1469	5178
1450	5181
1443	5183
1442	5186
1444	5188
1445	5190
1450	5193
1472	5195
1489	5198
1499	5200
1504	5202
1502	5206
1494	5208
1502	5211
1522	5213
1530	5215
1512	5218
1515	5220
1517	5223
1495	5225
1481	5227
1482	5230
1509	5232
1518	5235
1510	5237
1546	5240
1561	5242
1539	5244
1505	5248
1478	5250
1460	5253
1453	5255
1448	5257
1450	5260
1452	5262
1452	5265
1456	5267
1466	5269
1471	5272
1473	5274
1499	5277
1530	5279
1548	5281
1553	5284
1531	5286
1506	5289
1493	5292
1490	5294
1494	5297
1499	5299
1498	5302
1492	5304
1481	5306
1478	5309
1485	5311
1500	5314
1509	5316
1519	5318
1526	5321
1519	5323
1504	5326
1510	5328
1528	5331
1524	5334
1498	5336
1474	5339
1468	5341
1470	5344
1482	5346
1486	5348
1497	5351
1513	5353
1514	5356
1507	5358
1493	5360
1515	5363
1554	5365
1543	5368
1514	5370
1481	5372
1474	5376
1473	5378
1478	5381
1484	5383
1526	5385
1553	5388
1545	5390
1530	5393
1516	5395
1504	5398
1493	5400
1473	5402
1455	5405
1449	5407
1443	5410
1440	5412
1445	5414
1454	5417
1465	5420
1471	5423
1477	5425
1485	5427
1483	5430
1486	5432
1498	5435
1507	5437
1517	5439
1520	5442
1509	5444
1536	5447
1564	5449
1549	5451
1526	5454
1520	5456
1515	5459
1498	5462
1520	5464
1601	5467
1605	5469
1571	5472
1528	5474
1503	5476
1487	5479
1474	5481
1482	5484
1488	5486
1483	5489
1476	5491
1461	5493
1462	5496
1479	5498
1479	5501
1469	5504
1463	5506
1461	5509
1465	5511
1479	5514
1499	5516
1497	5518
1494	5521
1516	5523
1533	5526
1531	5528
1575	5530
1572	5533
1552	5535
1518	5538
1488	5540
1495	5542
1504	5545
1518	5548
1537	5551
1532	5553
1517	5556
1522	5558
1508	5560
1489	5563
1470	5565
1459	5568
1450	5570
1447	5572
1451	5575
1461	5577
1461	5580
1463	5582
1461	5584
1458	5587
1460	5590
1465	5593
1493	5595
1511	5597
1505	5600
1491	5602
1493	5605
1511	5607
1512	5609
1499	5612
1482	5614
1462	5617
1456	5619
1464	5621
1480	5624
1486	5626
1496	5629
1507	5632
1535	5635
1549	5637
1533	5639
1508	5642
1495	5644
1488	5647
1493	5649
1503	5651
1499	5654
1502	5656
1514	5659
1511	5661
1519	5663
1516	5666
1495	5668
1502	5671
1525	5673
1520	5676
1502	5679
1475	5681
1455	5684
1444	5686
1439	5688
1439	5691
1444	5693
1447	5696
1466	5698
1501	5700
1511	5703
1503	5705
1508	5708
1527	5710
1530	5713
1514	5715
1504	5718
1512	5721
1508	5723
1494	5726
1482	5728
1489	5730
1532	5733
1552	5735
1529	5738
1494	5740
1482	5742
1481	5745
1486	5747
1498	5750
1493	5752
1499	5754
1545	5757
1543	5760
1519	5763
1501	5765
1488	5767
1479	5770
1473	5772
1476	5775
1475	5777
1470	5779
1465	5782
1461	5784
1464	5787
1482	5789
1502	5792
1502	5794
1487	5796
1483	5799
1495	5801
1499	5805
1496	5807
1478	5809
1465	5812
1491	5814
1516	5817
1528	5819
1535	5821
1515	5824
1492	5826
1490	5829
1491	5831
1496	5833
1520	5836
1518	5838
1499	5841
1498	5843
1503	5846
1496	5849
1479	5851
1472	5854
1468	5856
1468	5858
1467	5861
1474	5863
1484	5866
1487	5868
1481	5871
1480	5873
1507	5875
1512	5878
1521	5880
1534	5883
1524	5885
1511	5888
1526	5891
1527	5893
1505	5896
1491	5898
1473	5900
1485	5903
1517	5905
1531	5908
1526	5910
1528	5912
1518	5915
1493	5917
1477	5920
1474	5922
1471	5924
1468	5927
1468	5929
1466	5933
1461	5935
1461	5937
1462	5940
1477	5942
1508	5945
1515	5947
1511	5950
1524	5952
1537	5954
1539	5957
1564	5959
1562	5962
1549	5964
1544	5966
1562	5969
1565	5971
1546	5975
1519	5977
1511	5979
1530	5982
1557	5984
1540	5987
1529	5989
1531	5991
1513	5994
1496	5996
1489	5999
1489	6001
1489	6003
1500	6006
1533	6008
1522	6011
1494	6013
1462	6017
1436	6019
1429	6021
1432	6024
1432	6026
1448	6029
1482	6031
1493	6033
1498	6036
1493	6038
1482	6041
1470	6043
1468	6045
1462	6048
1469	6050
1485	6053
1491	6055
1485	6057
1490	6061
1528	6063
1545	6066
1547	6068
1519	6071
1486	6073
1468	6075
1472	6078
1477	6080
1484	6083
1490	6085
1506	6087
1513	6090
1513	6092
1503	6095
1508	6097
1511	6099
1507	6103
1501	6105
1490	6108
1474	6110
1470	6112
1497	6115
1513	6117
1510	6120
1507	6122
1493	6124
1481	6127
1495	6129
1500	6132
1494	6134
1497	6136
1496	6139
1487	6141
1477	6145
1474	6147
1478	6150
1527	6152
1585	6154
1576	6157
1531	6159
1500	6162
1478	6164
1472	6166
1473	6169
1481	6171
1486	6174
1489	6176
1487	6178
1498	6181
1519	6183
1541	6187
1527	6189
1515	6191
1543	6194
1548	6196
1520	6199
1498	6201
1486	6203
1483	6206
1485	6208
1478	6211
1485	6213
1515	6216
1545	6218
1540	6220
1542	6223
1540	6225
1518	6228
1498	6231
1483	6233
1468	6236
1486	6238
1531	6241
1536	6243
1524	6245
1536	6248
1564	6250
1545	6253
1506	6255
1469	6257
1443	6260
1425	6262
1421	6265
1422	6267
1423	6269
1428	6273
1437	6275
1443	6278
1452	6280
1484	6283
1500	6285
1496	6287
1486	6290
1485	6292
1479	6295
1494	6297
1516	6299
1581	6302
1590	6304
1566	6307
1546	6309
1534	6311
1506	6315
1476	6317
1452	6320
1439	6322
1434	6324
1431	6327
1443	6329
1457	6332
1470	6334
1472	6336
1478	6339
1497	6341
1497	6344
1483	6346
1470	6349
1465	6351
1469	6353
1480	6356
1499	6359
1523	6362
1520	6364
1505	6366
1498	6369
1489	6371
1496	6374
1497	6376
1507	6378
1523	6381
1517	6383
1522	6386
1562	6388
1576	6390
1573	6393
1550	6395
1519	6398
1507	6401
1509	6403
1519	6406
1513	6408
1491	6411
1481	6413
1493	6416
1494	6418
1480	6420
1465	6423
1451	6425
1445	6428
1451	6430
1468	6432
1485	6435
1500	6437
1496	6440
1506	6443
1530	6445
1548	6448
1578	6450
1651	6453
1684	6455
1678	6457
1621	6460
1575	6462
1539	6465
1519	6467
1519	6469
1537	6472
1517	6474
1480	6477
1458	6479
1475	6481
1487	6484
1477	6487
1456	6490
1435	6492
1420	6494
1413	6497
1415	6499
1425	6502
1441	6504
1454	6506
1474	6509
1483	6511
1507	6514
1522	6516
1525	6519
1546	6521
1563	6523
1538	6526
1528	6529
1527	6532
1503	6534
1506	6536
1512	6539
1518	6541
1521	6544
1522	6546
1532	6548
1512	6551
1485	6553
1477	6556
1485	6558
1478	6560
1463	6563
1456	6565
1471	6568
1496	6571
1491	6573
1479	6576
1484	6578
1474	6581
1466	6583
1475	6585
1505	6588
1517	6590
1506	6593
1499	6595
1513	6598
1522	6600
1513	6602
1496	6605
1487	6607
1508	6610
1512	6612
1495	6615
1478	6618
1468	6620
1471	6623
1503	6625
1510	6627
1515	6630
1538	6632
1540	6635
1508	6637
1478	6639
1472	6642
1472	6644
1470	6647
1480	6649
1492	6651
1487	6654
1489	6657
1493	6660
1485	6662
1475	6664
1481	6667
1534	6669
1557	6672
1538	6674
1510	6676
1494	6679
1503	6681
1515	6684
1515	6686
1500	6689
1488	6691
1501	6693
1537	6696
1534	6699
1522	6702
1516	6704
1515	6706
1508	6709
1498	6711
1489	6714
1477	6716
1474	6718
1468	6721
1465	6723
1455	6726
1461	6728
1463	6730
1474	6733
1477	6735
1478	6738
1521	6740
1533	6743
1508	6746
1478	6748
1469	6751
1464	6753
1455	6755
1454	6758
1468	6760
1502	6763
1529	6765
1516	6768
1487	6770
1486	6772
1503	6775
1543	6777
1555	6780
1528	6782
1490	6785
1466	6788
1454	6790
1465	6793
1476	6795
1490	6797
1492	6800
1483	6802
1487	6805
1492	6807
1493	6809
1485	6812
1473	6814
1459	6817
1457	6819
1480	6821
1515	6824
1530	6827
1521	6830
1502	6832
1506	6834
1534	6837
1532	6839
1515	6842
1495	6844
1474	6847
1463	6849
1464	6851
1481	6854
1494	6856
1499	6859
1502	6861
1526	6863
1541	6866
1523	6868
1491	6872
1459	6874
1440	6876
1433	6879
1428	6881
1429	6884
1433	6886
1463	6888
1501	6891
1519	6893
1500	6896
1486	6898
1479	6900
1501	6903
1536	6905
1528	6908
1524	6910
1531	6913
1529	6916
1559	6918
1589	6921
1565	6923
1527	6926
1504	6928
1504	6930
1493	6933
1471	6935
1463	6938
1482	6940
1494	6942
1484	6945
1470	6947
1459	6950
1450	6952
1442	6955
1440	6958
1445	6960
1445	6963
1447	6965
1451	6967
1458	6970
1479	6972
1519	6975
1531	6977
1547	6979
1554	6982
1536	6984
1528	6987
1519	6989
1513	6992
1518	6994
1519	6996
1520	7000
1510	7002
1544	7005
1552	7007
1530	7009
1509	7012
1489	7014
1470	7017
1461	7019
1460	7021
1462	7024
1459	7026
1449	7029
1437	7031
1435	7033
1435	7036
1448	7038
1462	7042
1473	7044
1473	7046
1493	7049
1525	7051
1515	7054
1488	7056
1475	7059
1473	7061
1478	7063
1505	7066
1528	7068
1547	7071
1542	7073
1533	7075
1521	7078
1560	7080
1584	7084
1565	7086
1515	7088
1472	7091
1475	7093
1510	7096
1521	7098
1509	7100
1486	7103
1458	7105
1441	7108
1434	7110
1426	7112
1421	7115
1420	7117
1433	7120
1460	7122
1495	7124
1493	7128
1482	7130
1528	7133
1560	7135
1555	7138
1533	7140
1503	7142
1481	7145
1482	7147
1486	7150
1527	7152
1555	7154
1546	7157
1556	7159
1564	7162
1571	7164
1565	7166
1522	7170
1497	7172
1492	7175
1468	7177
1433	7179
1413	7182
1409	7184
1418	7187
1422	7189
1444	7191
1456	7194
1449	7196
1434	7199
1425	7201
1429	7204
1449	7206
1462	7208
1474	7212
1480	7214
1494	7217
1550	7219
1554	7221
1504	7224
1480	7226
1477	7229
1488	7231
1482	7233
1485	7236
1517	7238
1519	7241
1536	7243
1554	7245
1528	7248
1483	7250
1458	7254
1447	7256
1448	7258
1463	7261
1455	7263
1443	7266
1436	7268
1447	7270
1452	7273
1449	7275
1446	7278
1442	7280
1450	7283
1475	7285
1485	7287
1472	7290
1465	7292
1518	7296
1562	7298
1557	7300
1552	7303
1557	7305
1530	7308
1517	7310
1517	7312
1497	7315
1521	7317
1549	7320
1527	7322
1490	7324
1461	7327
1446	7329
1436	7332
1436	7334
1439	7336
1442	7340
1456	7342
1470	7345
1478	7347
1471	7350
1467	7352
1464	7354
1479	7357
1514	7359
1530	7362
1546	7364
1547	7366
1543	7369
1535	7371
1506	7374
1487	7376
1504	7378
1524	7382
1535	7384
1539	7387
1529	7389
1521	7391
1518	7394
1508	7396
1506	7399
1513	7401
1505	7403
1483	7406
1469	7408
1456	7411
1457	7413
1459	7415
1460	7418
1464	7420
1469	7424
1486	7426
1488	7429
1476	7431
1468	7433
1465	7436
1462	7438
1474	7441
1489	7443
1477	7445
1486	7448
1517	7450
1516	7453
1521	7455
1526	7457
1523	7460
1534	7462
1516	7465
1502	7468
1497	7470
1496	7473
1520	7475
1524	7478
1524	7480
1550	7482
1545	7485
1505	7487
1472	7490
1471	7492
1467	7494
1445	7497
1430	7499
1421	7502
1420	7504
1424	7507
1428	7510
1445	7512
1483	7515
1524	7517
1524	7520
1519	7522
1541	7524
1564	7527
1564	7529
1550	7532
1526	7534
1497	7536
1480	7539
1499	7541
1558	7544
1556	7546
1548	7548
1575	7552
1578	7554
1555	7557
1568	7559
1573	7562
1562	7564
1523	7566
1482	7569
1443	7571
1415	7574
1418	7576
1446	7578
1503	7581
1508	7583
1529	7586
1508	7588
1469	7590
1429	7593
1407	7596
1400	7599
1434	7601
1465	7603
1541	7606
1621	7608
1602	7611
1535	7613
1493	7615
1483	7618
1484	7620
1467	7623
1470	7625
1488	7628
1523	7630
1528	7632
1524	7635
1488	7638
1494	7641
1492	7643
1474	7645
1452	7648
1474	7650
1481	7653
1455	7655
1418	7657
1398	7660
1409	7662
1435	7665
1438	7667
1430	7669
1419	7672
1434	7674
1528	7677
1550	7680
1545	7682
1521	7685
1484	7687
1463	7690
1469	7692
1464	7695
1449	7697
1444	7699
1443	7702
1492	7704
1520	7707
1558	7709
1558	7711
1533	7714
1522	7716
1505	7719
1478	7721
1449	7724
1431	7727
1443	7729
1448	7732
1453	7734
1477	7736
1494	7739
1481	7741
1470	7744
1480	7746
1512	7748
1551	7751
1547	7753
1521	7756
1537	7758
1550	7760
1553	7763
1532	7766
1509	7769
1524	7771
1537	7774
1535	7776
1539	7778
1533	7781
1508	7783
1498	7786
1534	7788
1525	7790
1512	7793
1508	7795
1492	7798
1480	7800
1507	7802
1521	7805
1497	7808
1476	7811
1453	7813
1436	7815
1437	7818
1452	7820
1457	7823
1463	7825
1470	7827
1479	7830
1524	7832
1558	7835
1563	7837
1543	7840
1508	7842
1488	7844
1520	7847
1562	7849
1554	7853
1505	7855
1471	7857
1451	7860
1450	7862
1469	7865
1512	7867
1560	7869
1557	7872
1538	7874
1510	7877
1485	7879
1485	7881
1477	7884
1458	7886
1444	7889
1433	7891
1430	7894
1440	7897
1460	7899
1469	7902
1485	7904
1536	7907
1609	7909
1593	7911
1541	7914
1482	7916
1456	7919
1475	7921
1493	7923
1496	7926
1477	7928
1472	7931
1468	7933
1478	7936
1528	7939
1565	7941
1541	7944
1508	7946
1490	7948
1509	7951
1514	7953
1516	7956
1535	7958
1526	7960
1493	7963
1471	7965
1470	7968
1479	7970
1466	7973
1465	7975
1489	7977
1520	7981
1521	7983
1577	7986
1581	7988
1538	7990
1503	7993
1463	7995
1443	7998
1467	8000
1542	8002
1573	8005
1556	8007
1545	8010
1541	8012
1505	8014
1491	8017
1513	8019
1524	8023
1497	8025
1473	8027
1462	8030
1447	8032
1444	8035
1449	8037
1466	8039
1481	8042
1517	8044
1540	8047
1509	8049
1476	8052
1464	8054
1460	8056
1448	8059
1452	8061
1454	8065
1448	8067
1447	8069
1449	8072
1459	8074
1465	8077
1475	8079
1482	8081
1483	8084
1489	8086
1529	8089
1538	8091
1524	8093
1514	8096
1520	8098
1526	8101
1525	8103
1543	8105
1562	8109
1549	8111
1541	8114
1521	8116
1488	8118
1481	8121
1493	8123
1491	8126
1487	8128
1488	8130
1483	8133
1472	8135
1457	8138
1465	8140
1477	8143
1476	8145
1463	8147
1447	8151
1443	8153
1452	8156
1459	8158
1457	8160
1467	8163
1507	8165
1528	8168
1519	8170
1503	8172
1498	8175
1496	8177
1514	8180
1518	8182
1503	8184
1483	8187
1489	8189
1516	8193
1509	8195
1502	8197
1508	8200
1535	8202
1546	8205
1546	8207
1547	8209
1534	8212
1538	8214
1525	8217
1495	8219
1475	8222
1465	8224
1457	8226
1448	8229
1444	8231
1444	8235
1453	8237
1479	8239
1503	8242
1510	8244
1515	8247
1521	8249
1529	8251
1517	8254
1488	8256
1467	8259
1473	8261
1476	8263
1468	8266
1463	8268
1460	8271
1473	8273
1494	8275
1485	8279
1469	8281
1461	8284
1477	8286
1492	8288
1541	8291
1561	8293
1528	8296
1488	8298
1471	8301
1475	8303
1476	8305
1470	8308
1486	8310
1494	8313
1496	8315
1504	8317
1500	8321
1489	8323
1483	8326
1478	8328
1498	8330
1510	8333
1508	8335
1510	8338
1523	8340
1524	8342
1514	8345
1491	8347
1471	8350
1471	8352
1487	8354
1489	8357
1499	8359
1500	8363
1486	8365
1475	8367
1480	8370
1476	8372
1481	8375
1489	8377
1485	8380
1478	8382
1486	8384
1490	8387
1485	8389
1479	8392
1497	8394
1521	8396
1532	8399
1520	8401
1502	8404
1496	8407
1499	8409
1533	8412
1544	8414
1533	8417
1545	8419
1576	8421
1575	8424
1535	8426
1503	8429
1485	8431
1487	8433
1531	8436
1532	8438
1507	8441
1478	8443
1456	8445
1457	8449
1496	8451
1516	8454
1508	8456
1494	8459
1472	8461
1473	8463
1512	8466
1519	8468
1500	8471
1477	8473
1460	8475
1452	8478
1455	8480
1484	8483
1487	8485
1482	8487
1490	8491
1494	8493
1510	8496
1521	8498
1509	8500
1493	8503
1508	8505
1533	8508
1550	8510
1595	8512
1577	8515
1541	8517
1517	8520
1517	8522
1524	8524
1507	8527
1496	8529
1489	8532
1485	8535
1506	8538
1506	8540
1484	8542
1468	8545
1461	8547
1466	8550
1467	8552
1499	8554
1524	8557
1530	8559
1523	8562
1529	8564
1536	8566
1526	8569
1499	8571
1485	8574
1502	8577
1512	8579
1548	8582
1565	8584
1563	8587
1535	8589
1509	8591
1530	8594
1548	8596
1542	8599
1518	8601
1494	8603
1483	8606
1486	8608
1498	8611
1502	8613
1492	8616
1482	8619
1490	8621
1496	8624
1495	8626
1514	8629
1528	8631
1514	8633
1493	8636
1479	8638
1495	8641
1514	8643
1533	8645
1529	8648
1532	8650
1557	8653
1595	8655
1587	8657
1574	8660
1590	8663
1585	8666
1535	8668
1489	8670
1477	8673
1469	8675
1458	8678
1448	8680
1442	8682
1437	8685
1437	8687
1453	8690
1480	8692
1496	8695
1503	8697
1502	8699
1511	8702
1522	8705
1527	8708
1514	8710
1510	8712
1508	8715
1496	8717
1473	8720
1457	8722
1486	8724
1529	8727
1523	8729
1525	8732
1537	8734
1547	8736
1566	8739
1583	8741
1548	8744
1508	8747
1481	8749
1465	8752
1450	8754
1450	8757
1463	8759
1470	8762
1465	8764
1467	8766
1480	8769
1483	8771
1473	8774
1460	8776
1463	8778
1479	8781
1485	8783
1501	8786
1529	8788
1532	8791
1547	8794
1538	8796
1504	8799
1487	8801
1496	8803
1516	8806
1531	8808
1545	8811
1532	8813
1516	8815
1494	8818
1501	8820
1515	8823
1499	8825
1476	8828
1466	8830
1477	8833
1468	8836
1453	8838
1439	8841
1436	8843
1444	8845
1455	8848
1480	8850
1528	8853
1555	8855
1558	8857
1562	8860
1527	8862
1505	8865
1487	8867
1471	8869
1511	8872
1521	8875
1504	8878
1487	8880
1494	8882
1550	8885
1554	8887
1541	8890
1508	8892
1477	8894
1445	8897
1428	8899
1436	8902
1440	8904
1433	8907
1421	8909
1425	8911
1453	8914
1485	8916
1489	8920
1476	8922
1462	8924
1474	8927
1514	8929
1526	8932
1499	8934
1466	8936
1451	8939
1476	8941
1492	8944
1523	8946
1562	8948
1549	8951
1507	8953
1465	8956
1444	8958
1458	8961
1494	8964
1497	8966
1486	8969
1481	8971
1468	8974
1451	8976
1442	8978
1441	8981
1441	8983
1441	8986
1437	8988
1439	8990
1449	8993
1455	8995
1461	8998
1467	9000
1476	9003
1500	9006
1543	9008
1557	9011
1553	9013
1543	9015
1517	9018
1497	9020
1505	9023
1583	9025
1603	9027
1563	9030
1540	9032
1522	9035
1497	9037
1488	9039
1494	9042
1513	9044
1509	9048
1488	9050
1484	9053
1484	9055
1469	9057
1447	9060
1435	9062
1428	9065
1433	9067
1440	9069
1447	9072
1459	9074
1509	9077
1552	9079
1539	9081
1517	9084
1526	9086
1514	9090
1482	9092
1469	9094
1499	9097
1508	9099
1487	9102
1473	9104
1474	9106
1466	9109
1458	9111
1464	9114
1496	9116
1519	9118
1529	9121
1505	9123
1496	9126
1507	9128
1490	9132
1463	9134
1460	9136
1458	9139
1456	9141
1464	9144
1464	9146
1452	9148
1450	9151
1454	9153
1471	9156
1498	9158
1511	9160
1529	9163
1531	9165
1512	9168
1488	9170
1468	9172
1467	9176
1484	9178
1494	9181
1500	9183
1492	9185
1486	9188
1503	9190
1540	9193
1582	9195
1559	9198
1508	9200
1485	9202
1475	9205
1475	9207
1473	9210
1456	9212
1458	9214
1464	9218
1474	9220
1493	9223
1486	9225
1467	9227
1460	9230
1486	9232
1509	9235
1497	9237
1472	9239
1458	9242
1463	9244
1508	9247
1524	9249
1519	9251
1514	9254
1508	9256
1510	9260
1499	9262
1525	9264
1545	9267
1532	9269
1501	9272
1486	9274
1509	9277
1539	9279
1534	9281
1516	9284
1520	9286
1545	9289
1531	9291
1501	9293
1467	9296
1450	9298
1461	9302
1466	9304
1460	9306
1453	9309
1449	9311
1485	9314
1511	9316
1521	9318
1511	9321
1493	9323
1484	9326
1472	9328
1454	9330
1449	9333
1469	9335
1488	9338
1504	9340
1543	9344
1555	9346
1565	9348
1570	9351
1538	9353
1507	9356
1498	9358
1488	9360
1471	9363
1463	9365
1463	9368
1464	9370
1466	9372
1464	9375
1492	9377
1511	9380
1512	9382
1509	9384
1492	9388
1467	9390
1455	9393
1458	9395
1458	9398
1459	9400
1470	9402
1496	9405
1510	9407
1501	9410
1488	9412
1475	9414
1478	9417
1476	9419
1483	9422
1504	9424
1529	9426
1527	9430
1498	9432
1475	9435
1475	9437
1505	9439
1514	9442
1516	9444
1509	9447
1492	9449
1480	9451
1469	9454
1475	9456
1508	9459
1516	9461
1507	9464
1496	9466
1496	9468
1487	9472
1525	9474
1564	9477
1563	9479
1519	9481
1505	9484
1502	9486
1507	9489
1547	9491
1557	9493
1538	9496
1509	9498
1486	9501
1486	9503
1481	9505
1473	9508
1469	9510
1482	9513
1488	9516
1488	9518
1486	9521
1469	9523
1461	9526
1465	9528
1475	9531
1472	9533
1451	9535
1441	9538
1478	9540
1496	9543
1483	9545
1459	9547
1467	9550
1479	9552
1473	9555
1461	9558
1450	9560
1447	9563
1462	9565
1475	9568
1476	9570
1476	9572
1494	9575
1522	9577
1536	9580
1546	9582
1536	9584
1533	9587
1528	9589
1501	9592
1480	9594
1461	9597
1506	9600
1549	9602
1545	9605
1527	9607
1515	9610
1513	9612
1496	9614
1490	9617
1484	9619
1468	9622
1447	9624
1431	9626
1434	9629
1451	9631
1464	9634
1449	9636
1432	9638
1431	9641
1447	9644
1465	9647
1469	9649
1476	9651
1480	9654
1478	9656
1493	9659
1520	9661
1530	9663
1530	9666
1517	9668
1504	9671
1487	9673
1480	9675
1481	9678
1486	9680
1499	9683
1533	9686
1520	9689
1482	9691
1469	9693
1464	9696
1458	9698
1472	9701
1470	9703
1469	9705
1477	9708
1473	9710
1457	9713
1464	9715
1475	9717
1476	9720
1465	9722
1462	9725
1470	9728
1466	9730
1463	9733
1511	9735
1560	9738
1545	9740
1510	9742
1504	9745
1489	9747
1459	9750
1442	9752
1445	9754
1448	9757
1449	9759
1464	9762
1468	9764
1466	9767
1468	9769
1476	9772
1475	9775
1475	9777
1492	9780
1494	9782
1499	9784
1523	9787
1522	9789
1492	9792
1464	9794
1470	9796
1510	9799
1536	9801
1510	9804
1472	9806
1485	9808
1498	9811
1520	9814
1535	9817
1523	9819
1490	9821
1491	9824
1491	9826
1481	9829
1462	9831
1453	9834
1449	9836
1460	9838
1473	9841
1473	9843
1463	9846
1453	9848
1454	9850
1460	9853
1477	9856
1509	9859
1517	9861
1498	9863
1465	9866
1461	9868
1471	9871
1499	9873
1517	9875
1512	9878
1498	9880
1495	9883
1514	9885
1523	9887
1513	9890
1487	9892
1474	9895
1482	9897
1519	9901
1531	9903
1519	9905
1532	9908
1533	9910
1506	9913
1472	9915
1454	9917
1445	9920
1448	9922
1449	9925
1450	9927
1453	9929
1459	9932
1480	9934
1558	9937
1593	9939
1577	9942
1529	9945
1492	9947
1489	9950
1490	9952
1496	9954
1486	9957
1472	9959
1460	9962
1453	9964
1452	9967
1452	9969
1453	9971
1461	9974
1484	9976
1518	9979
1523	9981
1527	9984
1533	9987
1543	9989
1534	9992
1510	9994
1480	9996
1465	9999
1475	10001
1524	10004
1540	10006
1549	10009
1561	10011
1561	10013
1540	10016
1527	10018
1541	10021
1554	10023
1547	10027
1539	10029
1509	10032
1483	10034
1463	10037
1448	10039
1456	10042
1474	10044
1494	10046
1493	10049
1477	10051
1472	10054
1472	10056
1492	10059
1501	10061
1491	10064
1485	10066
1504	10070
1506	10072
1495	10074
1488	10077
1489	10079
1492	10082
1487	10084
1484	10087
1485	10089
1490	10092
1490	10094
1482	10097
1468	10099
1465	10101
1475	10104
1497	10106
1507	10109
1520	10112
1517	10115
1505	10117
1492	10120
1486	10122
1483	10125
1480	10127
1480	10130
1483	10132
1485	10134
1488	10137
1488	10139
1488	10142
1490	10144
1495	10147
