[J3660
I2C Verbindung gefunden!.
1505	2
1523	4
1512	7
1493	9
1487	11
1487	13
1479	16
1476	18
1476	20
1474	23
1484	25
1502	27
1523	30
1529	32
1520	34
1505	36
1482	39
1455	41
1436	44
1432	47
1444	49
1470	51
1477	54
1481	56
1477	58
1486	61
1501	63
1493	65
1472	67
1459	70
1449	72
1436	74
1428	77
1423	79
1443	81
1459	84
1477	87
1480	89
1470	91
1473	94
1481	96
1480	98
1489	101
1509	103
1498	105
1480	108
1457	110
1464	112
1496	115
1542	117
1543	120
1506	122
1494	124
1505	128
1505	130
1498	132
1485	135
1486	137
1476	139
1477	142
1466	144
1441	146
1421	149
1411	151
1405	153
1406	156
1410	158
1409	161
1410	163
1417	165
1437	168
1449	171
1495	173
1548	176
1560	178
1527	180
1508	183
1513	185
1507	187
1502	190
1492	192
1486	195
1487	197
1511	199
1531	202
1528	204
1510	206
1484	209
1469	211
1472	214
1517	217
1533	219
1519	221
1516	224
1522	226
1514	228
1498	231
1484	233
1480	236
1482	238
1496	240
1509	243
1495	245
1469	247
1448	250
1441	252
1449	254
1455	258
1478	260
1477	262
1463	265
1489	267
1519	269
1513	272
1532	274
1543	277
1513	279
1466	281
1456	284
1490	286
1491	288
1476	291
1452	293
1430	295
1441	299
1465	301
1490	303
1506	306
1484	308
1463	311
1442	313
1428	315
1421	318
1447	320
1475	322
1477	325
1469	327
1478	329
1485	332
1517	334
1540	336
1525	339
1520	342
1525	344
1511	347
1508	349
1502	352
1492	354
1488	356
1504	359
1502	361
1499	363
1480	366
1468	368
1469	370
1477	373
1494	375
1486	377
1481	380
1475	382
1500	385
1520	388
1535	390
1522	393
1497	395
1495	397
1499	400
1495	402
1472	404
1476	407
1531	409
1545	411
1502	414
1461	416
1444	418
1447	421
1469	423
1505	427
1529	429
1512	431
1504	434
1501	436
1497	438
1497	441
1484	443
1466	445
1465	448
1496	450
1529	452
1528	455
1484	457
1470	459
1493	462
1492	464
1481	467
1464	470
1470	472
1460	475
1459	477
1473	479
1513	482
1514	484
1509	486
1488	489
1471	491
1461	493
1460	496
1479	498
1482	500
1461	503
1443	505
1478	508
1509	510
1503	513
1473	516
1462	518
1447	520
1434	523
1461	525
1484	527
1498	530
1511	532
1516	534
1517	537
1520	539
1514	542
1517	544
1525	546
1547	549
1527	551
1496	553
1491	557
1495	559
1471	561
1471	564
1483	566
1475	568
1459	571
1465	573
1519	575
1543	578
1523	580
1520	583
1503	585
1522	587
1545	590
1523	592
1483	594
1458	598
1464	600
1456	602
1474	605
1527	607
1544	609
1530	612
1515	614
1485	617
1466	619
1473	621
1538	624
1548	626
1521	628
1471	631
1482	633
1487	635
1486	638
1485	641
1470	643
1462	646
1487	648
1522	650
1527	653
1481	655
1440	658
1433	660
1438	662
1475	665
1488	667
1500	669
1539	672
1548	674
1508	676
1478	679
1457	681
1436	684
1454	687
1467	689
1458	691
1444	694
1440	696
1491	699
1531	701
1519	703
1487	706
1462	708
1475	710
1489	713
1481	715
1465	717
1472	720
1469	722
1481	724
1486	728
1472	730
1454	733
1451	735
1484	737
1492	740
1493	742
1494	744
1536	747
1560	749
1563	751
1538	754
1508	756
1496	758
1481	761
1461	763
1436	765
1458	769
1507	771
1537	774
1529	776
1503	778
1473	781
1448	783
1455	785
1467	788
1451	790
1449	792
1455	795
1487	797
1517	799
1520	802
1488	804
1466	807
1458	809
1446	812
1434	815
1456	817
1477	819
1504	822
1516	824
1517	826
1499	829
1482	831
1487	833
1498	836
1492	838
1487	840
1466	843
1450	845
1449	848
1455	850
1449	852
1440	856
1477	858
1502	860
1530	863
1543	865
1523	867
1487	870
1494	872
1492	874
1482	877
1491	879
1487	882
1465	884
1450	886
1478	889
1515	891
1531	893
1498	897
1460	899
1458	901
1468	904
1514	906
1516	908
1514	911
1505	913
1478	915
1466	918
1471	920
1471	923
1470	925
1486	927
1513	930
1519	932
1513	934
1477	937
1443	940
1438	942
1451	945
1459	947
1474	949
1484	952
1479	954
1495	957
1513	959
1541	961
1567	964
1535	966
1483	968
1458	971
1425	973
1417	975
1437	978
1459	980
1505	983
1533	986
1548	988
1536	990
1510	993
1507	995
1502	998
1475	1000
1453	1002
1451	1005
1448	1007
1467	1010
1473	1012
1462	1014
1447	1017
1460	1019
1486	1022
1501	1025
1504	1027
1500	1030
1484	1032
1477	1035
1509	1037
1540	1039
1525	1042
1499	1044
1480	1047
1456	1049
1431	1051
1456	1054
1490	1056
1501	1059
1509	1061
1493	1063
1476	1067
1468	1069
1473	1072
1478	1074
1467	1076
1493	1079
1535	1081
1557	1084
1542	1086
1544	1088
1513	1091
1476	1093
1468	1096
1469	1098
1472	1100
1473	1103
1463	1105
1450	1108
1468	1111
1492	1114
1525	1116
1533	1118
1529	1121
1501	1123
1472	1126
1492	1128
1490	1130
1495	1133
1504	1135
1501	1138
1502	1140
1502	1142
1517	1145
1519	1147
1535	1150
1534	1153
1511	1155
1506	1158
1504	1160
1524	1163
1564	1165
1574	1167
1544	1170
1557	1172
1585	1175
1573	1177
1510	1179
1457	1182
1440	1184
1441	1187
1440	1189
1431	1191
1455	1195
1484	1197
1496	1200
1495	1202
1481	1205
1443	1207
1426	1209
1424	1212
1445	1214
1464	1217
1480	1219
1520	1221
1518	1224
1495	1226
1469	1229
1460	1231
1458	1233
1463	1236
1459	1239
1459	1242
1504	1244
1519	1246
1477	1249
1453	1251
1462	1254
1464	1256
1474	1258
1516	1261
1518	1263
1486	1266
1440	1268
1448	1270
1488	1273
1485	1275
1464	1278
1467	1281
1505	1284
1539	1286
1524	1288
1498	1291
1470	1293
1468	1296
1455	1298
1451	1300
1461	1303
1461	1305
1513	1308
1521	1310
1488	1312
1457	1315
1447	1317
1449	1320
1458	1323
1460	1325
1471	1328
1474	1330
1480	1333
1495	1335
1523	1337
1524	1340
1516	1342
1516	1345
1510	1347
1500	1349
1511	1352
1520	1354
1506	1357
1488	1359
1467	1361
1463	1364
1463	1367
1474	1370
1508	1372
1531	1374
1517	1377
1490	1379
1478	1382
1520	1384
1523	1387
1497	1389
1470	1391
1468	1394
1484	1396
1491	1399
1488	1401
1498	1403
1516	1406
1502	1409
1477	1412
1486	1414
1493	1416
1489	1419
1478	1421
1478	1424
1465	1426
1476	1428
1485	1431
1475	1433
1484	1436
1483	1438
1500	1440
1516	1443
1515	1445
1505	1448
1489	1451
1521	1453
1530	1456
1504	1458
1478	1461
1488	1463
1518	1465
1522	1468
1498	1470
1478	1473
1496	1475
1506	1478
1509	1480
1519	1482
1540	1485
1526	1487
1507	1490
1507	1492
1499	1495
1488	1498
1487	1500
1463	1503
1480	1505
1510	1507
1526	1510
1499	1512
1484	1515
1477	1517
1517	1519
1528	1522
1488	1524
1468	1527
1482	1529
1489	1531
1503	1534
1505	1537
1489	1540
1467	1542
1468	1544
1489	1547
1505	1549
1550	1552
1554	1554
1536	1557
1502	1559
1484	1561
1472	1564
1463	1566
1461	1569
1459	1571
1472	1573
1486	1576
1487	1579
1491	1582
1484	1584
1508	1586
1550	1589
1550	1591
1540	1594
1521	1596
1484	1598
1451	1601
1440	1603
1455	1606
1466	1608
1478	1610
1511	1613
1519	1615
1496	1618
1470	1620
1488	1623
1504	1626
1485	1628
1461	1631
1457	1633
1491	1635
1518	1638
1530	1640
1498	1643
1475	1645
1467	1648
1466	1650
1447	1652
1443	1655
1457	1657
1459	1660
1473	1662
1477	1665
1465	1668
1456	1670
1475	1673
1517	1675
1545	1677
1533	1680
1503	1682
1491	1685
1482	1687
1503	1689
1507	1692
1502	1694
1490	1697
1481	1699
1498	1701
1533	1704
1556	1707
1549	1710
1511	1712
1484	1714
1486	1717
1487	1719
1490	1722
1492	1724
1483	1726
1457	1729
1448	1731
1466	1734
1492	1736
1521	1738
1501	1741
1484	1743
1490	1746
1507	1748
1518	1752
1493	1754
1470	1756
1460	1759
1463	1761
1507	1764
1518	1766
1543	1768
1517	1771
1494	1773
1487	1776
1505	1778
1509	1780
1480	1783
1454	1785
1445	1788
1450	1790
1495	1793
1539	1796
1520	1798
1501	1801
1505	1803
1511	1805
1534	1808
1521	1810
1494	1813
1458	1815
1439	1817
1446	1820
1452	1822
1454	1825
1460	1827
1465	1829
1472	1832
1479	1835
1501	1838
1530	1840
1522	1843
1499	1845
1477	1847
1468	1850
1469	1852
1506	1855
1519	1857
1505	1859
1515	1862
1540	1864
1526	1867
1484	1869
1455	1871
1443	1874
1443	1876
1462	1880
1470	1882
1483	1884
1500	1887
1504	1889
1498	1892
1505	1894
1514	1896
1519	1899
1510	1901
1512	1904
1520	1906
1507	1908
1508	1911
1513	1913
1500	1916
1528	1918
1543	1921
1543	1924
1531	1926
1516	1929
1479	1931
1451	1934
1451	1936
1452	1938
1454	1941
1469	1943
1480	1946
1483	1948
1474	1950
1464	1953
1465	1955
1492	1958
1497	1960
1502	1963
1505	1966
1530	1968
1533	1971
1522	1973
1514	1975
1498	1978
1505	1980
1515	1983
1514	1985
1509	1987
1502	1990
1495	1992
1481	1995
1466	1997
1461	1999
1495	2002
1517	2004
1505	2008
1476	2010
1458	2012
1473	2015
1481	2017
1471	2020
1463	2022
1488	2025
1521	2027
1526	2029
1520	2032
1492	2034
1463	2037
1445	2039
1438	2041
1438	2044
1461	2046
1482	2050
1484	2052
1482	2054
1505	2057
1537	2059
1530	2062
1505	2064
1485	2066
1508	2069
1537	2071
1536	2074
1523	2076
1510	2078
1493	2081
1480	2083
1496	2086
1504	2088
1494	2091
1472	2094
1475	2096
1503	2099
1502	2101
1482	2103
1473	2106
1473	2108
1467	2111
1483	2113
1500	2115
1495	2118
1476	2120
1457	2123
1462	2125
1477	2128
1499	2130
1511	2132
1509	2136
1505	2138
1505	2141
1509	2143
1495	2145
1479	2148
1472	2150
1489	2153
1541	2155
1555	2157
1540	2160
1520	2162
1498	2165
1488	2167
1508	2169
1526	2172
1515	2174
1496	2178
1476	2180
1461	2182
1447	2185
1455	2187
1489	2190
1506	2192
1523	2194
1535	2197
1549	2199
1561	2202
1543	2204
1517	2207
1499	2209
1475	2211
1464	2214
1476	2216
1480	2220
1472	2222
1462	2224
1465	2227
1519	2229
1561	2232
1560	2234
1524	2236
1507	2239
1508	2241
1497	2244
1486	2246
1468	2248
1457	2251
1459	2253
1482	2256
1489	2258
1488	2260
1522	2264
1537	2266
1527	2269
1535	2271
1529	2273
1504	2276
1494	2278
1482	2281
1471	2283
1453	2285
1434	2288
1433	2290
1460	2293
1505	2295
1554	2298
1589	2300
1561	2302
1513	2306
1510	2308
1510	2311
1489	2313
1479	2315
1499	2318
1491	2320
1479	2323
1476	2325
1478	2327
1492	2330
1492	2332
1487	2335
1481	2337
1469	2339
1491	2342
1498	2344
1476	2348
1454	2350
1436	2352
1447	2355
1458	2357
1461	2360
1474	2362
1507	2364
1502	2367
1514	2369
1517	2372
1502	2374
1471	2377
1457	2379
1513	2381
1532	2384
1503	2386
1479	2390
1470	2392
1507	2394
1535	2397
1523	2399
1509	2402
1475	2404
1457	2406
1446	2409
1433	2411
1434	2414
1472	2416
1495	2418
1516	2421
1534	2423
1519	2426
1490	2428
1478	2430
1475	2434
1481	2436
1509	2439
1536	2441
1529	2443
1489	2446
1456	2448
1443	2451
1439	2453
1443	2456
1455	2458
1445	2460
1445	2463
1448	2465
1460	2468
1510	2470
1533	2472
1505	2476
1487	2478
1469	2481
1457	2483
1461	2485
1505	2488
1525	2490
1525	2493
1505	2495
1487	2497
1505	2500
1503	2502
1496	2505
1474	2507
1467	2509
1463	2512
1464	2514
1494	2518
1499	2520
1481	2522
1482	2525
1470	2527
1464	2530
1454	2532
1479	2534
1522	2537
1524	2539
1504	2542
1469	2544
1480	2547
1466	2549
1438	2551
1433	2554
1432	2556
1467	2560
1503	2562
1506	2564
1489	2567
1488	2569
1481	2572
1463	2574
1438	2576
1416	2579
1414	2581
1435	2584
1467	2586
1495	2588
1518	2591
1507	2593
1489	2596
1461	2598
1476	2600
1507	2604
1525	2606
1508	2609
1469	2611
1425	2613
1406	2616
1412	2618
1500	2621
1549	2623
1513	2625
1462	2628
1447	2630
1450	2633
1447	2635
1437	2638
1431	2640
1451	2642
1459	2646
1465	2648
1461	2651
1473	2653
1498	2655
1510	2658
1537	2660
1509	2663
1461	2665
1452	2667
1458	2670
1483	2672
1472	2675
1450	2677
1452	2679
1481	2682
1482	2684
1467	2688
1457	2690
1437	2692
1430	2695
1422	2697
1437	2700
1438	2702
1427	2704
1417	2707
1424	2709
1449	2712
1482	2714
1486	2716
1477	2719
1471	2721
1481	2724
1477	2726
1457	2729
1458	2732
1447	2734
1431	2737
1474	2739
1495	2742
1514	2744
1516	2746
1483	2749
1438	2751
1409	2754
1392	2756
1393	2758
1452	2761
1509	2763
1496	2766
1470	2768
1454	2770
1480	2774
1495	2776
1480	2779
1454	2781
1454	2783
1460	2786
1465	2788
1473	2791
1497	2793
1497	2795
1512	2798
1527	2800
1521	2803
1505	2805
1486	2808
1462	2810
1440	2812
1488	2816
1526	2818
1520	2821
1510	2823
1478	2825
1473	2828
1507	2830
1512	2833
1497	2835
1496	2837
1493	2840
1476	2842
1459	2845
1480	2847
1520	2849
1534	2852
1504	2854
1487	2857
1489	2860
1472	2862
1465	2865
1466	2867
1459	2870
1447	2872
1455	2874
1467	2877
1456	2879
1465	2882
1502	2884
1494	2886
1465	2889
1446	2891
1450	2894
1448	2896
1454	2899
1465	2902
1458	2904
1453	2907
1461	2909
1495	2912
1513	2914
1497	2916
1512	2919
1538	2921
1515	2924
1497	2926
1480	2928
1468	2931
1466	2933
1491	2936
1500	2938
1501	2940
1512	2944
1540	2946
1508	2949
1476	2951
1440	2953
1434	2956
1463	2958
1497	2961
1482	2963
1464	2965
1447	2968
1463	2970
1460	2973
1444	2975
1437	2977
1427	2980
1450	2982
1462	2985
1465	2988
1486	2991
1511	2993
1514	2995
1488	2998
1462	3000
1454	3003
1457	3005
1487	3007
1504	3010
1504	3012
1488	3015
1473	3017
1476	3019
1476	3022
1483	3024
1477	3027
1472	3030
1495	3032
1508	3035
1498	3037
1501	3040
1502	3042
1488	3044
1466	3047
1471	3049
1517	3052
1524	3054
1496	3057
1477	3059
1485	3061
1475	3064
1460	3066
1453	3069
1453	3072
1447	3074
1476	3077
1503	3079
1508	3082
1499	3084
1486	3086
1476	3089
1479	3091
1475	3094
1476	3096
1496	3098
1524	3101
1542	3103
1563	3106
1546	3108
1524	3110
1537	3113
1545	3116
1529	3119
1498	3121
1476	3124
1487	3126
1489	3128
1477	3131
1491	3133
1542	3136
1571	3138
1535	3140
1485	3143
1463	3145
1482	3148
1561	3150
1564	3152
1517	3155
1510	3158
1502	3161
1470	3163
1461	3165
1464	3168
1451	3170
1438	3173
1447	3175
1459	3177
1453	3180
1460	3182
1466	3185
1466	3187
1482	3190
1525	3192
1558	3194
1550	3197
1538	3200
1520	3203
1497	3205
1480	3207
1472	3210
1481	3212
1505	3215
1501	3217
1479	3219
1473	3222
1496	3224
1499	3227
1480	3229
1484	3231
1524	3234
1524	3236
1501	3239
1473	3241
1450	3244
1459	3247
1502	3249
1538	3252
1526	3254
1508	3256
1520	3259
1521	3261
1501	3264
1487	3266
1495	3268
1504	3271
1511	3273
1499	3276
1502	3278
1534	3280
1530	3283
1507	3286
1480	3289
1492	3291
1509	3294
1508	3296
1496	3298
1495	3301
1529	3303
1532	3306
1515	3308
1504	3310
1512	3313
1512	3315
1502	3318
1500	3320
1481	3322
1479	3325
1494	3328
1497	3331
1480	3333
1461	3335
1461	3338
1482	3340
1506	3343
1515	3345
1502	3347
1489	3350
1475	3352
1494	3355
1512	3357
1522	3359
1519	3362
1507	3364
1522	3367
1519	3369
1514	3372
1514	3375
1526	3377
1528	3380
1511	3382
1498	3385
1497	3387
1511	3389
1511	3392
1497	3394
1510	3397
1514	3399
1504	3401
1486	3404
1472	3406
1487	3409
1525	3411
1522	3414
1506	3417
1491	3419
1489	3422
1501	3424
1517	3426
1532	3429
1535	3431
1547	3434
1525	3436
1522	3438
1527	3441
1501	3443
1482	3446
1482	3448
1489	3450
1493	3453
1501	3456
1501	3459
1481	3461
1470	3463
1466	3466
1460	3468
1451	3471
1441	3473
1438	3476
1444	3478
1478	3480
1557	3483
1584	3485
1570	3488
1564	3490
1568	3492
1534	3495
1497	3497
1475	3501
1459	3503
1454	3505
1474	3508
1503	3510
1512	3513
1510	3515
1521	3517
1545	3520
1550	3522
1530	3525
1524	3527
1537	3529
1529	3532
1500	3534
1473	3537
1467	3539
1469	3542
1491	3545
1518	3547
1557	3550
1568	3552
1545	3555
1522	3557
1497	3559
1478	3562
1468	3564
1492	3567
1516	3569
1525	3571
1509	3574
1502	3576
1513	3579
1514	3581
1502	3584
1484	3587
1475	3589
1503	3592
1556	3594
1567	3596
1536	3599
1519	3601
1522	3604
1514	3606
1503	3608
1486	3611
1483	3613
1522	3616
1557	3618
1569	3620
1557	3623
1557	3625
1550	3629
1525	3631
1505	3634
1495	3636
1498	3638
1498	3641
1489	3643
1489	3646
1489	3648
1497	3650
1487	3653
1472	3655
1485	3658
1520	3660
1508	3662
1468	3665
1443	3667
1444	3671
1499	3673
1530	3675
1515	3678
1484	3680
1479	3683
1489	3685
1485	3687
1507	3690
1552	3692
1551	3695
1534	3697
1509	3699
1477	3702
1456	3704
1480	3707
1502	3709
1512	3713
1495	3715
1541	3717
1557	3720
1546	3722
1514	3725
1481	3727
1479	3729
1521	3732
1531	3734
1527	3737
1513	3739
1494	3741
1524	3744
1558	3746
1565	3749
1533	3751
1510	3753
1496	3757
1496	3759
1484	3762
1484	3764
1487	3766
1480	3769
1470	3771
1468	3774
1473	3776
1498	3779
1512	3781
1506	3783
1484	3786
1476	3788
1482	3791
1489	3793
1488	3795
1503	3799
1516	3801
1509	3804
1485	3806
1464	3808
1489	3811
1495	3813
1488	3816
1486	3818
1538	3820
1553	3823
1527	3825
1503	3828
1479	3830
1486	3832
1504	3835
1501	3837
1488	3841
1479	3843
1482	3846
1509	3848
1543	3850
1539	3853
1511	3855
1501	3858
1525	3860
1530	3862
1530	3865
1518	3867
1493	3870
1470	3872
1475	3874
1480	3877
1475	3879
1462	3883
1460	3885
1476	3887
1498	3890
1511	3892
1503	3895
1481	3897
1473	3899
1477	3902
1500	3904
1510	3907
1493	3909
1476	3911
1483	3914
1495	3916
1501	3919
1496	3921
1503	3923
1560	3927
1576	3929
1563	3932
1529	3934
1519	3937
1542	3939
1538	3941
1516	3944
1498	3946
1521	3949
1543	3951
1524	3953
1505	3956
1492	3958
1494	3961
1501	3963
1498	3965
1489	3969
1477	3971
1470	3974
1482	3976
1507	3978
1510	3981
1491	3983
1473	3986
1467	3988
1480	3990
1485	3993
1493	3995
1505	3998
1497	4000
1509	4003
1564	4005
1569	4007
1540	4011
1506	4013
1488	4016
1481	4018
1484	4020
1493	4023
1489	4025
1512	4028
1536	4030
1527	4032
1498	4035
1483	4037
1476	4040
1484	4042
1501	4044
1506	4047
1497	4049
1535	4052
1558	4055
1555	4057
1525	4060
1492	4062
1472	4065
1456	4067
1461	4069
1467	4072
1475	4074
1468	4077
1456	4079
1443	4081
1438	4084
1439	4086
1445	4089
1468	4091
1480	4094
1476	4097
1471	4099
1471	4102
1476	4104
1470	4107
1468	4109
1470	4111
1464	4114
1472	4116
1520	4119
1530	4121
1533	4123
1550	4126
1540	4128
1505	4131
1489	4133
1489	4135
1488	4139
1495	4141
1488	4144
1484	4146
1489	4148
1494	4151
1499	4153
1492	4156
1479	4158
1468	4160
1455	4163
1452	4165
1466	4168
1509	4170
1517	4173
1510	4175
1497	4177
1503	4180
1512	4183
1523	4186
1535	4188
1540	4190
1511	4193
1495	4195
1494	4198
1491	4200
1484	4202
1486	4205
1506	4207
1515	4210
1509	4212
1499	4214
1515	4217
1505	4219
1482	4222
1472	4225
1459	4227
1462	4230
1480	4232
1484	4235
1478	4237
1486	4239
1513	4242
1500	4244
1475	4247
1472	4249
1472	4252
1473	4254
1468	4256
1465	4259
1471	4261
1462	4264
1456	4267
1474	4269
1506	4272
1535	4274
1533	4277
1511	4279
1479	4281
1452	4284
1446	4286
1453	4289
1458	4291
1467	4293
1480	4296
1491	4298
1498	4301
1516	4303
1528	4305
1519	4308
1515	4311
1506	4314
1481	4316
1459	4318
1455	4321
1453	4323
1441	4326
1438	4328
1449	4331
1472	4333
1507	4335
1543	4338
1531	4340
1497	4343
1475	4345
1475	4347
1464	4350
1446	4353
1431	4356
1435	4358
1439	4360
1452	4363
1492	4365
1544	4368
1604	4370
1612	4372
1570	4375
1524	4377
1512	4380
1516	4382
1494	4384
1462	4387
1443	4389
1452	4392
1477	4395
1479	4397
1486	4400
1497	4402
1487	4405
1464	4407
1457	4410
1460	4412
1442	4414
1426	4417
1435	4419
1444	4422
1450	4424
1452	4426
1484	4429
1493	4431
1486	4434
1459	4436
1434	4439
1434	4442
1446	4444
1466	4447
1495	4449
1496	4451
1476	4454
1492	4456
1511	4459
1493	4461
1489	4463
1496	4466
1487	4468
1462	4471
1437	4473
1432	4475
1433	4478
1451	4481
1460	4484
1463	4486
1452	4489
1447	4491
1438	4493
1439	4496
1467	4498
1519	4501
1522	4503
1508	4505
1496	4508
1480	4510
1474	4513
1481	4515
1494	4517
1482	4520
1483	4523
1481	4526
1472	4528
1452	4530
1451	4533
1452	4535
1440	4538
1438	4540
1430	4542
1419	4545
1418	4547
1447	4550
1477	4552
1513	4554
1503	4557
1474	4559
1437	4562
1429	4564
1465	4568
1487	4570
1474	4572
1444	4575
1418	4577
1426	4580
1456	4582
1464	4584
1464	4587
1445	4589
1442	4592
1436	4594
1463	4596
1490	4599
1492	4601
1491	4604
1496	4606
1514	4609
1509	4612
1470	4614
1440	4617
1429	4619
1426	4621
1429	4624
1440	4626
1447	4629
1430	4631
1432	4633
1460	4636
1485	4638
1469	4641
1431	4643
1467	4646
1510	4648
1510	4651
1470	4654
1448	4656
1451	4659
1427	4661
1407	4663
1408	4666
1413	4668
1429	4671
1529	4673
1557	4675
1542	4678
1506	4680
1473	4683
1480	4685
1486	4687
1497	4690
1493	4692
1470	4696
1466	4698
1473	4700
1488	4703
1517	4705
1535	4708
1512	4710
1483	4712
1464	4715
1447	4717
1442	4720
1430	4722
1425	4725
1428	4727
1471	4729
1535	4732
1545	4734
1500	4738
1466	4740
1451	4742
1437	4745
1436	4747
1429	4750
1433	4752
1466	4754
1479	4757
1474	4759
1484	4762
1493	4764
1479	4766
1459	4769
1484	4771
1494	4774
1475	4776
1453	4779
1445	4782
1465	4784
1468	4787
1453	4789
1441	4792
1423	4794
1425	4796
1453	4799
1455	4801
1445	4804
1452	4806
1465	4808
1494	4811
1507	4813
1490	4816
1482	4818
1492	4820
1494	4824
1483	4826
1485	4829
1470	4831
1449	4833
1474	4836
1514	4838
1505	4841
1483	4843
1454	4845
1442	4848
1481	4850
1506	4853
1503	4855
1479	4857
1495	4860
1525	4862
1528	4866
1555	4868
1551	4870
1510	4873
1476	4875
1454	4878
1439	4880
1443	4883
1464	4885
1477	4887
1476	4890
1478	4892
1482	4895
1530	4897
1545	4899
1509	4902
1470	4904
1461	4908
1450	4910
1462	4912
1499	4915
1511	4917
1497	4920
1485	4922
1527	4924
1537	4927
1504	4929
1484	4932
1478	4934
1474	4936
1455	4939
1464	4941
1495	4944
1491	4946
1479	4948
1472	4952
1480	4954
1480	4957
1485	4959
1494	4962
1513	4964
1524	4966
1521	4969
1493	4971
1491	4974
1490	4976
1473	4978
1461	4981
1447	4983
1429	4986
1425	4988
1433	4990
1452	4994
1460	4996
1458	4999
1457	5001
1482	5003
1514	5006
1516	5008
1505	5011
1496	5013
1494	5015
1526	5018
1510	5020
1480	5023
1447	5025
1424	5028
1437	5030
1454	5032
1453	5036
1440	5038
1450	5041
1484	5043
1493	5045
1464	5048
1444	5050
1453	5053
1521	5055
1521	5057
1490	5060
1475	5062
1487	5065
1509	5067
1498	5069
1462	5072
1445	5074
1481	5078
1537	5080
1561	5082
1535	5085
1495	5087
1479	5090
1469	5092
1466	5095
1469	5097
1464	5099
1469	5102
1523	5104
1549	5107
1537	5109
1497	5111
1479	5114
1491	5116
1510	5120
1493	5122
1465	5124
1444	5127
1420	5129
1428	5132
1486	5134
1497	5136
1480	5139
1455	5141
1462	5144
1472	5146
1512	5148
1527	5151
1513	5153
1478	5156
1445	5158
1448	5160
1475	5164
1480	5166
1469	5169
1471	5171
1478	5173
1485	5176
1493	5178
1489	5181
1483	5183
1469	5186
1462	5188
1476	5190
1497	5193
1481	5195
1460	5198
1458	5200
1468	5202
1517	5206
1557	5208
1576	5211
1554	5213
1510	5215
1481	5218
1457	5220
1445	5223
1439	5225
1438	5227
1457	5230
1478	5232
1478	5235
1475	5237
1490	5239
1497	5242
1552	5244
1625	5248
1603	5250
1538	5252
1496	5255
1458	5257
1438	5260
1434	5262
1433	5264
1447	5267
1479	5269
1494	5272
1511	5274
1544	5277
1539	5279
1545	5281
1536	5284
1514	5286
1487	5289
1482	5292
1492	5294
1494	5297
1490	5299
1478	5302
1471	5304
1485	5306
1501	5309
1491	5311
1469	5314
1461	5316
1464	5318
1479	5321
1495	5323
1495	5326
1495	5328
1535	5330
1559	5334
1532	5336
1485	5339
1460	5341
1452	5343
1461	5346
1489	5348
1494	5351
1477	5353
1468	5356
1507	5358
1583	5360
1600	5363
1569	5365
1544	5368
1522	5370
1556	5372
1591	5376
1569	5378
1527	5381
1507	5383
1493	5385
1471	5388
1463	5390
1472	5393
1478	5395
1503	5397
1542	5400
1588	5402
1580	5405
1536	5407
1507	5409
1485	5412
1479	5414
1477	5417
1483	5420
1471	5422
1451	5425
1442	5427
1441	5430
1445	5432
1450	5435
1480	5437
1547	5439
1615	5442
1643	5444
1627	5447
1585	5449
1561	5451
1543	5454
1514	5456
1519	5459
1529	5462
1524	5464
1503	5467
1478	5469
1484	5472
1497	5474
1489	5476
1480	5479
1487	5481
1510	5484
1523	5486
1550	5488
1532	5491
1506	5493
1487	5496
1477	5498
1481	5500
1471	5504
1461	5506
1450	5509
1475	5511
1515	5514
1507	5516
1519	5518
1550	5521
1548	5523
1516	5526
1483	5528
1469	5530
1453	5533
1470	5535
1482	5538
1522	5540
1542	5542
1543	5545
1522	5548
1522	5551
1545	5553
1588	5555
1584	5558
1542	5560
1492	5563
1476	5565
1483	5567
1493	5570
1540	5572
1548	5575
1534	5577
1512	5580
1501	5582
1507	5584
1513	5587
1491	5590
1471	5593
1471	5595
1486	5597
1486	5600
1488	5602
1483	5605
1501	5607
1512	5609
1531	5612
1576	5614
1580	5617
1537	5619
1492	5621
1471	5624
1510	5626
1544	5629
1546	5632
1528	5634
1522	5637
1505	5639
1491	5642
1469	5644
1452	5646
1453	5649
1452	5651
1497	5654
1559	5656
1561	5658
1526	5661
1500	5663
1511	5666
1517	5668
1528	5671
1548	5673
1528	5676
1507	5679
1486	5681
1471	5684
1483	5686
1516	5688
1566	5691
1576	5693
1580	5696
1547	5698
1512	5700
1479	5703
1481	5705
1510	5708
1508	5710
1496	5712
1501	5715
1507	5718
1529	5721
1516	5723
1498	5725
1482	5728
1472	5730
1456	5733
1454	5735
1464	5738
1467	5740
1473	5742
1477	5745
1479	5747
1512	5750
1529	5752
1543	5754
1562	5757
1567	5760
1542	5763
1532	5765
1517	5767
1501	5770
1485	5772
1490	5775
1520	5777
1532	5779
1523	5782
1495	5784
1480	5787
1484	5789
1499	5791
1508	5794
1501	5796
1518	5799
1514	5801
1496	5804
1482	5807
1479	5809
1487	5812
1493	5814
1513	5817
1549	5819
1549	5821
1536	5824
1600	5826
1603	5829
1552	5831
1510	5833
1472	5836
1457	5838
1469	5841
1503	5843
1507	5846
1505	5849
1499	5851
1497	5854
1492	5856
1507	5858
1536	5861
1527	5863
1493	5866
1477	5868
1495	5870
1498	5873
1482	5875
1459	5878
1455	5880
1468	5882
1471	5885
1482	5888
1485	5891
1480	5893
1482	5896
1508	5898
1565	5900
1580	5903
1538	5905
1503	5908
1492	5910
1494	5912
1529	5915
1577	5917
1571	5920
1529	5922
1502	5924
1499	5927
1543	5929
1566	5933
1571	5935
1570	5937
1546	5940
1547	5942
1551	5945
1515	5947
1486	5949
1493	5952
1545	5954
1556	5957
1530	5959
1490	5962
1466	5964
1469	5966
1491	5969
1483	5971
1469	5975
1453	5977
1444	5979
1466	5982
1507	5984
1526	5987
1521	5989
1505	5991
1503	5994
1519	5996
1521	5999
1517	6001
1521	6003
1523	6006
1507	6008
1529	6011
1543	6013
1530	6016
1539	6019
1526	6021
1505	6024
1491	6026
1484	6028
1508	6031
1535	6033
1549	6036
1552	6038
1532	6041
1496	6043
1494	6045
1537	6048
1537	6050
1517	6053
1482	6055
1475	6057
1508	6061
1508	6063
1491	6066
1467	6068
1454	6070
1449	6073
1462	6075
1487	6078
1494	6080
1486	6082
1479	6085
1471	6087
1494	6090
1518	6092
1570	6094
1588	6097
1553	6099
1500	6103
1476	6105
1453	6107
1448	6110
1463	6112
1490	6115
1506	6117
1501	6120
1486	6122
1496	6124
1515	6127
1502	6129
1488	6132
1472	6134
1470	6136
1483	6139
1476	6141
1465	6145
1487	6147
1543	6149
1548	6152
1577	6154
1587	6157
1557	6159
1527	6161
1513	6164
1497	6166
1488	6169
1494	6171
1496	6173
1485	6176
1478	6178
1479	6181
1483	6183
1482	6187
1475	6189
1471	6191
1517	6194
1540	6196
1525	6199
1512	6201
1508	6203
1514	6206
1529	6208
1535	6211
1527	6213
1498	6215
1478	6218
1471	6220
1472	6223
1481	6225
1479	6227
1467	6231
1459	6233
1453	6236
1452	6238
1467	6240
1509	6243
1551	6245
1548	6248
1533	6250
1508	6253
1500	6255
1502	6257
1499	6260
1483	6262
1503	6265
1537	6267
1529	6269
1527	6273
1516	6275
1501	6278
1492	6280
1493	6282
1488	6285
1490	6287
1511	6290
1537	6292
1536	6294
1536	6297
1532	6299
1527	6302
1503	6304
1486	6306
1493	6309
1503	6311
1513	6315
1506	6317
1504	6320
1520	6322
1529	6324
1519	6327
1502	6329
1486	6332
1476	6334
1465	6336
1468	6339
1473	6341
1473	6344
1505	6346
1584	6348
1624	6351
1624	6353
1583	6356
1524	6359
1522	6361
1541	6364
1545	6366
1521	6369
1489	6371
1477	6373
1482	6376
1489	6378
1479	6381
1475	6383
1505	6386
1525	6388
1525	6390
1497	6393
1486	6395
1481	6398
1477	6401
1488	6403
1508	6406
1502	6408
1473	6411
1502	6413
1559	6415
1636	6418
1615	6420
1548	6423
1494	6425
1458	6427
1443	6430
1435	6432
1445	6435
1470	6437
1518	6439
1556	6443
1578	6445
1564	6448
1531	6450
1505	6452
1505	6455
1524	6457
1535	6460
1542	6462
1567	6464
1559	6467
1535	6469
1533	6472
1523	6474
1485	6476
1455	6479
1434	6481
1427	6484
1427	6487
1431	6490
1437	6492
1447	6494
1465	6497
1475	6499
1482	6502
1483	6504
1482	6506
1490	6509
1520	6511
1539	6514
1560	6516
1573	6518
1609	6521
1648	6523
1618	6526
1561	6529
1526	6531
1542	6534
1554	6536
1533	6539
1500	6541
1482	6543
1498	6546
1535	6548
1528	6551
1514	6553
1507	6555
1501	6558
1493	6560
1498	6563
1514	6565
1529	6567
1546	6571
1544	6573
1516	6576
1490	6578
1496	6581
1487	6583
1467	6585
1451	6588
1459	6590
1482	6593
1500	6595
1527	6597
1564	6600
1555	6602
1516	6605
1494	6607
1475	6609
1452	6612
1480	6615
1543	6618
1561	6620
1544	6622
1506	6625
1520	6627
1539	6630
1535	6632
1524	6634
1515	6637
1500	6639
1472	6642
1461	6644
1471	6646
1469	6649
1458	6651
1487	6654
1504	6657
1507	6659
1518	6662
1521	6664
1507	6667
1479	6669
1461	6672
1453	6674
1491	6676
1563	6679
1569	6681
1548	6684
1529	6686
1534	6688
1517	6691
1486	6693
1471	6696
1467	6699
1468	6701
1473	6704
1477	6706
1504	6709
1546	6711
1583	6713
1565	6716
1530	6718
1502	6721
1485	6723
1473	6725
1470	6728
1483	6730
1505	6733
1507	6735
1511	6737
1545	6740
1623	6743
1635	6746
1588	6748
1521	6751
1506	6753
1523	6755
1528	6758
1513	6760
1501	6763
1495	6765
1490	6767
1509	6770
1539	6772
1538	6775
1515	6777
1480	6779
1454	6782
1444	6785
1448	6788
1485	6790
1502	6792
1499	6795
1484	6797
1485	6800
1493	6802
1497	6804
1502	6807
1493	6809
1500	6812
1520	6814
1521	6816
1528	6819
1521	6821
1511	6824
1513	6827
1549	6830
1537	6832
1511	6834
1494	6837
1494	6839
1494	6842
1480	6844
1492	6846
1496	6849
1491	6851
1478	6854
1475	6856
1483	6858
1522	6861
1547	6863
1533	6866
1491	6868
1495	6871
1529	6874
1541	6876
1541	6879
1514	6881
1506	6883
1495	6886
1482	6888
1476	6891
1456	6893
1431	6895
1426	6898
1430	6900
1454	6903
1496	6905
1507	6908
1494	6910
1477	6913
1478	6916
1478	6918
1486	6921
1511	6923
1531	6925
1524	6928
1497	6930
1491	6933
1491	6935
1481	6937
1502	6940
1547	6942
1588	6945
1574	6947
1524	6949
1496	6952
1484	6955
1478	6958
1473	6960
1472	6962
1455	6965
1447	6967
1455	6970
1465	6972
1485	6974
1505	6977
1524	6979
1517	6982
1484	6984
1451	6987
1434	6989
1452	6991
1464	6994
1480	6996
1477	7000
1480	7002
1505	7004
1508	7007
1495	7009
1485	7012
1482	7014
1477	7016
1471	7019
1468	7021
1450	7024
1437	7026
1448	7028
1454	7031
1455	7033
1451	7036
1442	7038
1435	7041
1440	7044
1466	7046
1485	7049
1480	7051
1483	7054
1481	7056
1483	7058
1492	7061
1514	7063
1526	7066
1495	7068
1470	7070
1451	7073
1451	7075
1484	7078
1508	7080
1515	7083
1502	7086
1484	7088
1459	7091
1438	7093
1441	7095
1457	7098
1486	7100
1501	7103
1487	7105
1474	7107
1457	7110
1442	7112
1452	7115
1446	7117
1447	7119
1474	7122
1489	7124
1474	7128
1449	7130
1444	7133
1487	7135
1552	7137
1544	7140
1496	7142
1453	7145
1432	7147
1424	7149
1460	7152
1467	7154
1453	7157
1437	7159
1426	7161
1426	7164
1473	7166
1485	7170
1480	7172
1472	7174
1465	7177
1473	7179
1497	7182
1509	7184
1504	7186
1481	7189
1460	7191
1471	7194
1463	7196
1454	7199
1458	7201
1478	7203
1495	7206
1504	7208
1486	7212
1471	7214
1471	7216
1486	7219
1490	7221
1502	7224
1493	7226
1471	7228
1444	7231
1438	7233
1436	7236
1446	7238
1481	7240
1497	7243
1490	7245
1470	7248
1457	7250
1441	7252
1436	7256
1459	7258
1531	7261
1553	7263
1540	7265
1499	7268
1483	7270
1466	7273
1454	7275
1485	7278
1499	7280
1473	7282
1442	7285
1430	7287
1429	7290
1436	7292
1440	7294
1450	7298
1465	7300
1470	7303
1475	7305
1456	7307
1457	7310
1458	7312
1440	7315
1425	7317
1412	7319
1402	7322
1405	7324
1413	7327
1462	7329
1513	7331
1543	7334
1541	7336
1519	7340
1490	7342
1465	7344
1457	7347
1444	7349
1421	7352
1414	7354
1440	7357
1448	7359
1429	7361
1415	7364
1408	7366
1410	7369
1416	7371
1428	7373
1472	7376
1515	7378
1522	7382
1515	7384
1494	7386
1461	7389
1479	7391
1494	7394
1473	7396
1439	7398
1454	7401
1492	7403
1498	7406
1487	7408
1466	7410
1447	7413
1468	7415
1469	7418
1452	7420
1421	7424
1425	7426
1430	7428
1415	7431
1407	7433
1408	7436
1434	7438
1478	7440
1486	7443
1479	7445
1473	7448
1456	7450
1444	7452
1447	7455
1458	7457
1460	7460
1499	7462
1498	7464
1480	7468
1462	7470
1445	7473
1427	7475
1415	7477
1408	7480
1437	7482
1450	7485
1461	7487
1481	7489
1474	7492
1447	7494
1438	7497
1453	7499
1473	7502
1478	7504
1466	7506
1458	7510
1465	7512
1469	7515
1475	7517
1490	7519
1496	7522
1513	7524
1511	7527
1480	7529
1437	7531
1413	7534
1425	7536
1474	7539
1477	7541
1449	7543
1422	7546
1409	7548
1412	7552
1433	7554
1442	7556
1433	7559
1454	7561
1507	7564
1553	7566
1540	7569
1514	7571
1471	7573
1440	7576
1407	7578
1400	7581
1428	7583
1439	7585
1457	7588
1489	7590
1494	7593
1468	7596
1451	7598
1461	7601
1467	7603
1460	7606
1446	7608
1436	7610
1433	7613
1445	7615
1445	7618
1447	7620
1450	7622
1464	7625
1476	7627
1479	7630
1461	7632
1435	7635
1423	7638
1415	7640
1407	7643
1404	7645
1406	7648
1452	7650
1498	7652
1511	7655
1501	7657
1486	7660
1527	7662
1537	7664
1534	7667
1543	7669
1539	7672
1528	7674
1498	7676
1476	7680
1474	7682
1481	7685
1473	7687
1485	7689
1490	7692
1481	7694
1470	7697
1475	7699
1484	7701
1490	7704
1508	7706
1502	7709
1471	7711
1452	7714
1445	7716
1442	7718
1435	7721
1476	7724
1530	7727
1522	7729
1506	7731
1493	7734
1487	7736
1468	7739
1446	7741
1439	7743
1453	7746
1455	7748
1448	7751
1455	7753
1455	7755
1434	7758
1416	7760
1412	7763
1434	7766
1475	7768
1505	7771
1501	7773
1491	7776
1494	7778
1507	7780
1498	7783
1474	7785
1452	7788
1440	7790
1433	7793
1445	7795
1458	7797
1478	7800
1502	7802
1505	7805
1500	7808
1488	7810
1494	7813
1494	7815
1476	7818
1466	7820
1471	7822
1483	7825
1520	7827
1553	7830
1589	7832
1594	7834
1555	7837
1507	7839
1499	7842
1490	7844
1478	7846
1470	7849
1498	7852
1513	7855
1492	7857
1465	7860
1440	7862
1434	7864
1428	7867
1421	7869
1426	7872
1435	7874
1465	7876
1560	7879
1616	7881
1607	7884
1567	7886
1535	7888
1520	7891
1501	7894
1457	7897
1438	7899
1428	7901
1436	7904
1461	7906
1497	7909
1512	7911
1507	7913
1492	7916
1503	7918
1493	7921
1472	7923
1461	7926
1478	7928
1514	7930
1533	7933
1513	7936
1491	7939
1479	7941
1467	7943
1478	7946
1482	7948
1477	7951
1467	7953
1472	7955
1478	7958
1512	7960
1545	7963
1544	7965
1504	7967
1458	7970
1444	7972
1451	7975
1496	7977
1546	7980
1531	7983
1487	7985
1451	7988
1462	7990
1497	7993
1494	7995
1467	7997
1455	8000
1486	8002
1518	8005
1519	8007
1515	8009
1507	8012
1512	8014
1517	8017
1515	8019
1493	8022
1465	8025
1450	8027
1462	8030
1493	8032
1495	8034
1478	8037
1473	8039
1475	8042
1463	8044
1443	8046
1488	8049
1571	8051
1577	8054
1548	8056
1508	8058
1481	8061
1481	8064
1478	8067
1464	8069
1453	8071
1459	8074
1476	8076
1475	8079
1467	8081
1476	8084
1510	8086
1519	8088
1508	8091
1481	8093
1478	8096
1494	8098
1487	8100
1478	8103
1506	8105
1526	8109
1511	8111
1484	8113
1474	8116
1475	8118
1482	8121
1521	8123
1546	8125
1565	8128
1561	8130
1534	8133
1501	8135
1514	8137
1536	8140
1545	8142
1529	8145
1488	8147
1458	8150
1439	8153
1437	8155
1433	8158
1434	8160
1437	8163
1443	8165
1449	8167
1452	8170
1471	8172
1495	8175
1510	8177
1523	8179
1530	8182
1539	8184
1527	8187
1504	8189
1508	8192
1508	8195
1502	8197
1497	8200
1492	8202
1509	8204
1547	8207
1571	8209
1610	8212
1600	8214
1562	8216
1525	8219
1504	8221
1495	8224
1490	8226
1483	8228
1480	8231
1475	8233
1468	8237
1491	8239
1508	8242
1510	8244
1511	8246
1502	8249
1488	8251
1478	8254
1491	8256
1522	8258
1547	8261
1537	8263
1512	8266
1488	8268
1481	8270
1500	8273
1531	8275
1546	8279
1573	8281
1575	8283
1552	8286
1537	8288
1538	8291
1528	8293
1507	8295
1513	8298
1501	8300
1477	8303
1459	8305
1456	8308
1461	8310
1515	8312
1549	8315
1537	8317
1501	8321
1469	8323
1451	8325
1435	8328
1440	8330
1473	8333
1487	8335
1487	8337
1507	8340
1520	8342
1521	8345
1507	8347
1496	8349
1508	8352
1505	8354
1498	8357
1489	8359
1490	8361
1516	8365
1542	8367
1558	8370
1561	8372
1559	8374
1560	8377
1576	8379
1588	8382
1563	8384
1531	8387
1518	8389
1540	8391
1546	8394
1544	8396
1529	8399
1524	8401
1546	8403
1535	8407
1505	8409
1475	8412
1464	8414
1466	8416
1468	8419
1480	8421
1485	8424
1477	8426
1480	8428
1544	8431
1616	8433
1600	8436
1560	8438
1505	8440
1482	8443
1507	8445
1517	8449
1512	8451
1501	8453
1485	8456
1480	8458
1481	8461
1495	8463
1490	8465
1487	8468
1483	8470
1483	8473
1514	8475
1523	8478
1523	8480
1504	8482
1483	8485
1475	8487
1495	8491
1514	8493
1510	8495
1500	8498
1497	8500
1508	8503
1525	8505
1524	8507
1525	8510
1519	8512
1509	8515
1508	8517
1508	8519
1512	8522
1507	8524
1496	8527
1487	8529
1523	8531
1594	8535
1630	8537
1627	8540
1596	8542
1549	8545
1524	8547
1520	8549
1505	8552
1486	8554
1486	8557
1523	8559
1535	8561
1519	8564
1525	8566
1523	8569
1539	8571
1541	8573
1516	8577
1488	8579
1474	8582
1469	8584
1497	8586
1516	8589
1513	8591
1537	8594
1562	8596
1557	8598
1520	8601
1518	8603
1535	8606
1522	8608
1502	8611
1481	8613
1466	8615
1488	8619
1508	8621
1510	8624
1493	8626
1475	8628
1475	8631
1501	8633
1553	8636
1564	8638
1532	8640
1496	8643
1480	8645
1484	8648
1537	8650
1556	8652
1534	8655
1512	8657
1530	8660
1542	8663
1530	8665
1519	8668
1539	8670
1541	8673
1532	8675
1518	8678
1494	8680
1472	8682
1460	8685
1458	8687
1480	8690
1492	8692
1495	8694
1498	8697
1521	8699
1556	8702
1551	8705
1529	8707
1541	8710
1541	8712
1539	8715
1519	8717
1489	8719
1480	8722
1481	8724
1498	8727
1501	8729
1503	8731
1507	8734
1557	8736
1595	8739
1597	8741
1575	8743
1547	8747
1531	8749
1503	8752
1476	8754
1458	8757
1470	8759
1492	8761
1502	8764
1503	8766
1513	8769
1526	8771
1515	8773
1513	8776
1505	8778
1495	8781
1523	8783
1526	8785
1530	8788
1541	8791
1542	8794
1527	8796
1504	8798
1474	8801
1466	8803
1474	8806
1486	8808
1506	8810
1518	8813
1521	8815
1554	8818
1567	8820
1547	8823
1529	8825
1555	8827
1571	8830
1591	8833
1572	8836
1539	8838
1507	8840
1481	8843
1472	8845
1473	8848
1480	8850
1485	8852
1511	8855
1603	8857
1605	8860
1554	8862
1510	8864
1488	8867
1524	8869
1532	8872
1523	8875
1505	8877
1501	8880
1487	8882
1518	8885
1518	8887
1488	8890
1469	8892
1492	8894
1507	8897
1501	8899
1478	8902
1463	8904
1476	8906
1506	8909
1541	8911
1535	8914
1528	8916
1558	8919
1581	8922
1553	8924
1536	8927
1517	8929
1532	8931
1530	8934
1496	8936
1480	8939
1495	8941
1501	8943
1491	8946
1472	8948
1474	8951
1539	8953
1553	8956
1546	8958
1518	8961
1485	8964
1486	8966
1500	8969
1522	8971
1544	8973
1517	8976
1481	8978
1478	8981
1487	8983
1521	8985
1533	8988
1513	8990
1480	8993
1490	8995
1521	8997
1530	9000
1513	9003
1478	9006
1450	9008
1444	9010
1466	9013
1500	9015
1526	9018
1533	9020
1539	9022
1546	9025
1582	9027
1621	9030
1626	9032
1593	9035
1532	9037
1497	9039
1467	9042
1451	9044
1481	9048
1537	9050
1550	9052
1517	9055
1487	9057
1478	9060
1490	9062
1510	9064
1499	9067
1468	9069
1472	9072
1523	9074
1528	9076
1489	9079
1451	9081
1444	9084
1453	9086
1480	9089
1552	9092
1569	9094
1530	9097
1497	9099
1460	9102
1467	9104
1472	9106
1466	9109
1464	9111
1467	9114
1489	9116
1499	9118
1497	9121
1504	9123
1519	9126
1522	9128
1537	9131
1542	9134
1532	9136
1526	9139
1507	9141
1510	9143
1576	9146
1626	9148
1613	9151
1567	9153
1515	9155
1483	9158
1459	9160
1447	9163
1442	9165
1442	9168
1473	9170
1534	9172
1556	9176
1544	9178
1514	9181
1481	9183
1471	9185
1501	9188
1528	9190
1526	9193
1528	9195
1508	9197
1497	9200
1500	9202
1524	9205
1546	9207
1534	9209
1508	9212
1484	9214
1479	9218
1500	9220
1525	9222
1520	9225
1504	9227
1500	9230
1523	9232
1577	9235
1561	9237
1520	9239
1499	9242
1490	9244
1485	9247
1506	9249
1513	9251
1494	9254
1486	9256
1481	9260
1487	9262
1557	9264
1571	9267
1552	9269
1517	9272
1495	9274
1485	9276
1494	9279
1492	9281
1518	9284
1572	9286
1582	9288
1555	9291
1536	9293
1505	9296
1490	9298
1495	9302
1492	9304
1479	9306
1480	9309
1518	9311
1530	9314
1527	9316
1532	9318
1544	9321
1533	9323
1519	9326
1499	9328
1493	9330
1497	9333
1531	9335
1572	9338
1584	9340
1569	9342
1545	9346
1530	9348
1511	9351
1481	9353
1461	9355
1464	9358
1465	9360
1471	9363
1484	9365
1481	9368
1495	9370
1519	9372
1551	9375
1545	9377
1516	9380
1484	9382
1500	9384
1540	9388
1540	9390
1500	9393
1463	9395
1449	9397
1496	9400
1539	9402
1530	9405
1508	9407
1499	9409
1511	9412
1511	9414
1499	9417
1497	9419
1518	9421
1526	9424
1535	9426
1531	9430
1506	9432
1484	9435
1501	9437
1512	9439
1500	9442
1520	9444
1539	9447
1528	9449
1510	9451
1486	9454
1497	9456
1532	9459
1559	9461
1550	9463
1517	9466
1492	9468
1495	9472
1510	9474
1504	9476
1519	9479
1519	9481
1502	9484
1508	9486
1548	9488
1554	9491
1535	9493
1501	9496
1478	9498
1490	9501
1516	9503
1527	9505
1503	9508
1467	9510
1458	9513
1454	9516
1445	9518
1444	9521
1460	9523
1459	9526
1463	9528
1488	9530
1499	9533
1496	9535
1492	9538
1530	9540
1548	9542
1540	9545
1541	9547
1528	9550
1503	9552
1488	9554
1488	9558
1516	9560
1536	9563
1535	9565
1520	9568
1524	9570
1531	9572
1526	9575
1521	9577
1501	9580
1509	9582
1512	9584
1505	9587
1490	9589
1505	9592
1525	9594
1522	9596
1497	9600
1473	9602
1476	9605
1489	9607
1517	9609
1543	9612
1536	9614
1520	9617
1530	9619
1549	9621
1518	9624
1504	9626
1545	9629
1580	9631
1571	9634
1514	9636
1465	9638
1438	9641
1440	9644
1447	9647
1453	9649
1453	9651
1461	9654
1478	9656
1475	9659
1486	9661
1518	9663
1538	9666
1563	9668
1558	9671
1524	9673
1489	9675
1460	9678
1437	9680
1439	9683
1511	9686
1540	9688
1525	9691
1505	9693
1499	9696
1508	9698
1546	9700
1578	9703
1568	9705
1561	9708
1556	9710
1542	9713
1522	9715
1495	9717
1465	9720
1455	9722
1497	9725
1536	9728
1534	9730
1530	9733
1508	9735
1483	9738
1501	9740
1530	9742
1522	9745
1501	9747
1493	9750
1485	9752
1474	9754
1495	9757
1497	9759
1484	9762
1471	9764
1478	9766
1475	9769
1499	9772
1517	9775
1559	9777
1540	9780
1535	9782
1526	9784
1506	9787
1486	9789
1464	9792
1445	9794
1447	9796
1501	9799
1539	9801
1538	9804
1510	9806
1478	9808
1466	9811
1485	9814
1501	9817
1493	9819
1473	9821
1451	9824
1460	9826
1477	9829
1497	9831
1526	9833
1517	9836
1500	9838
1485	9841
1479	9843
1467	9845
1465	9848
1468	9850
1470	9853
1484	9856
1488	9859
1484	9861
1490	9863
1501	9866
1548	9868
1562	9871
1551	9873
1591	9875
1601	9878
1603	9880
1569	9883
1522	9885
1497	9887
1499	9890
1498	9892
1494	9895
1501	9897
1523	9900
1545	9903
1544	9905
1549	9908
1555	9910
1562	9912
1535	9915
1499	9917
1458	9920
1469	9922
1494	9925
1519	9927
1523	9929
1506	9932
1490	9934
1473	9937
1494	9939
1533	9942
1529	9945
1503	9947
1479	9950
1498	9952
1522	9954
1535	9957
1512	9959
1486	9962
1473	9964
1475	9966
1503	9969
1545	9971
1528	9974
1488	9976
1471	9978
1479	9981
1486	9984
1479	9987
1469	9989
1458	9992
1470	9994
1480	9996
1475	9999
1485	10001
1467	10004
1458	10006
1477	10009
1484	10011
1481	10013
1471	10016
1459	10018
1445	10021
1459	10023
1475	10027
1487	10029
1522	10032
1547	10034
1559	10037
1549	10039
1508	10041
1472	10044
1451	10046
1454	10049
1457	10051
1477	10054
1524	10056
1542	10059
1529	10061
1514	10064
1503	10066
1506	10068
1510	10072
1505	10074
1514	10077
1531	10079
1540	10082
1521	10084
1490	10087
1483	10089
1497	10092
1494	10094
1484	10097
1499	10099
1510	10101
1551	10104
1537	10106
1515	10109
1528	10112
1529	10115
1511	10117
1532	10120
1564	10122
1553	10125
1526	10127
1507	10129
1491	10132
1496	10134
1495	10137
1474	10139
1450	10142
1441	10144
1465	10147
1520	10149
1563	10152
1592	10155
1567	10157
1522	10160
1473	10162
1460	10165
1487	10167
1520	10170
1528	10172
1512	10175
1494	10177
1469	10180
1453	10182
1464	10184
1459	10187
1443	10189
1431	10192
1422	10194
1438	10198
1454	10200
1478	10203
1497	10205
1510	10208
1510	10210
1511	10213
1510	10215
1543	10217
1600	10220
1582	10222
1546	10225
1510	10227
1479	10230
1460	10232
1478	10235
1490	10237
1480	10241
1458	10243
1452	10245
1471	10248
1470	10250
1457	10253
1463	10255
1470	10258
1475	10260
1501	10263
1517	10265
1544	10268
1543	10270
1516	10272
1506	10275
1526	10277
1547	10280
1556	10283
1548	10286
1548	10288
1529	10291
1493	10293
1489	10296
1532	10298
1541	10301
1513	10303
1505	10305
1493	10308
1490	10310
1481	10313
1484	10315
1491	10318
1486	10320
1470	10323
1435	10326
1447	10329
1536	10331
1552	10333
1529	10336
1497	10338
1470	10341
1453	10343
1512	10346
1548	10348
1532	10351
1495	10353
1503	10356
1493	10358
1490	10360
1493	10363
1461	10365
1455	10369
1461	10371
1464	10374
1476	10376
1535	10379
1561	10381
1530	10384
1483	10386
1453	10389
1429	10391
1420	10393
1424	10396
1428	10398
1458	10401
1533	10403
1601	10406
1597	10408
1554	10412
1504	10414
1468	10417
1465	10419
1486	10421
1484	10424
1467	10426
1465	10429
1464	10431
1455	10434
1451	10436
1458	10439
1462	10441
1467	10444
1507	10446
1542	10448
1516	10451
1502	10454
1524	10457
1503	10459
1475	10462
1456	10464
1451	10467
1449	10469
1486	10472
1555	10474
1561	10477
1531	10479
1504	10481
1482	10484
1468	10486
1448	10489
1431	10491
1437	10494
1438	10497
1473	10500
1473	10502
1467	10505
1482	10507
1500	10509
1502	10512
1487	10514
1466	10517
1466	10519
1470	10522
1487	10524
1475	10527
1445	10529
1432	10532
1420	10534
1409	10536
1419	10540
1426	10542
1431	10545
1481	10547
1499	10550
1488	10552
1484	10555
1481	10557
1460	10560
1452	10562
1468	10564
1476	10567
1479	10569
1471	10572
1460	10574
1458	10577
1502	10579
1543	10583
1559	10585
1517	10588
1467	10590
1471	10593
1501	10595
1494	10597
1485	10600
1465	10602
1448	10605
1455	10607
1492	10610
1511	10612
1492	10615
1504	10617
1532	10620
1542	10622
1551	10625
1521	10628
1488	10630
1480	10633
1463	10635
1479	10638
1510	10640
1502	10643
1500	10645
1480	10648
1449	10650
1455	10652
1494	10655
1511	10657
1491	10660
1484	10662
1472	10665
1476	10668
1489	10671
1482	10673
1459	10676
1443	10678
1447	10681
1456	10683
1453	10685
1444	10688
1455	10690
1493	10693
1502	10695
1480	10698
1452	10700
1432	10703
1457	10705
1481	10708
1480	10711
1499	10713
1537	10716
1542	10718
1504	10721
1457	10723
1444	10726
1454	10728
1462	10731
1480	10733
1494	10736
1508	10738
1480	10740
1432	10743
1402	10745
1403	10748
1407	10750
1408	10754
1409	10756
1406	10759
1423	10761
1498	10764
1545	10766
1546	10768
1518	10771
1483	10773
1438	10776
1429	10778
1430	10781
1458	10783
1487	10786
1476	10788
1453	10791
1477	10793
1505	10797
1506	10799
1494	10801
1485	10804
1452	10806
1425	10809
1413	10811
1421	10814
1432	10816
1454	10819
1452	10821
1479	10824
1506	10826
1498	10828
1464	10831
1447	10833
1469	10836
1487	10839
1480	10842
1464	10844
1448	10847
1448	10849
1472	10852
1472	10854
1452	10856
1437	10859
1435	10861
1458	10864
1480	10866
1483	10869
1515	10871
1553	10874
1546	10876
1529	10880
1487	10882
1464	10885
1462	10887
1450	10889
1429	10892
1413	10894
1400	10897
1412	10899
1432	10902
1466	10904
1461	10907
1447	10909
1463	10912
1496	10914
1494	10916
1473	10919
1449	10921
1432	10925
1422	10927
1422	10930
1459	10932
1492	10935
1523	10937
1527	10940
1496	10942
1464	10944
1467	10947
1488	10949
1491	10952
1477	10954
1491	10957
1520	10959
1579	10962
1593	10964
1537	10968
1488	10970
1472	10972
1472	10975
1462	10977
1479	10980
1487	10982
1496	10985
1488	10987
1472	10990
1447	10992
1422	10995
1432	10997
1444	11000
1454	11002
1467	11004
1475	11008
1480	11010
1467	11013
1449	11015
1434	11018
1421	11020
1416	11023
1418	11025
1467	11028
1507	11030
1568	11032
1598	11035
1606	11037
1568	11040
1568	11042
1588	11045
1546	11047
1480	11051
1440	11053
1437	11056
1442	11058
1453	11060
1449	11063
1421	11065
1410	11068
1461	11070
1552	11073
1565	11075
1513	11078
1450	11080
1412	11083
1431	11085
1479	11088
1486	11090
1465	11092
1436	11096
1423	11098
1429	11101
1437	11103
1432	11106
1428	11108
1429	11111
1425	11113
1423	11116
1440	11118
1452	11120
1463	11123
1530	11125
1534	11128
1489	11130
1447	11133
1420	11136
1422	11139
1437	11141
1448	11144
1441	11146
1458	11148
1470	11151
1478	11153
1464	11156
1442	11158
1433	11161
1430	11163
1431	11166
1438	11168
1441	11171
1448	11173
1464	11175
1479	11179
1486	11181
1488	11184
1485	11186
1508	11189
1520	11191
1504	11194
1476	11196
1467	11199
1464	11201
1454	11204
1477	11206
1507	11208
1503	11211
1481	11213
1461	11216
1457	11218
1485	11222
1496	11224
1491	11227
1483	11229
1470	11232
1455	11234
1473	11236
1509	11239
1517	11241
1507	11244
1483	11246
1471	11249
1472	11251
1475	11254
1465	11256
1445	11259
1432	11261
1445	11264
1488	11267
1512	11269
1520	11272
1507	11274
1491	11277
1472	11279
1500	11282
1545	11284
1537	11287
1507	11289
1502	11292
1540	11294
1544	11296
1535	11299
1504	11301
1494	11304
1499	11307
1494	11310
1480	11312
1466	11315
1459	11317
1480	11320
1488	11322
1473	11324
1488	11327
1494	11329
1475	11332
1448	11334
1441	11337
1467	11339
1479	11342
1472	11344
1451	11347
1454	11350
1471	11352
1494	11355
1500	11357
1487	11360
1475	11362
1475	11365
1470	11367
1469	11370
1493	11372
1516	11375
1508	11377
1485	11379
1461	11382
1459	11384
1520	11387
1573	11389
1578	11393
1534	11395
1484	11398
1467	11400
1466	11403
1476	11405
1471	11408
1450	11410
1443	11412
1461	11415
1532	11417
1580	11420
1574	11422
1549	11425
1513	11427
1490	11430
1470	11432
1464	11436
1466	11438
1482	11440
1473	11443
1486	11445
1504	11448
1508	11450
1489	11453
1469	11455
1469	11458
1473	11460
1493	11463
1493	11465
1481	11467
1523	11470
1565	11472
1551	11475
1520	11478
1514	11481
1506	11483
1497	11486
1491	11488
1496	11491
1499	11493
1498	11495
1505	11498
1498	11500
1490	11503
1477	11505
1472	11508
1496	11510
1524	11513
1517	11515
1489	11518
1470	11521
1485	11524
1514	11526
1539	11528
1547	11531
1529	11533
1509	11536
1484	11538
1473	11541
1478	11543
1474	11546
1474	11548
1468	11551
1469	11553
1488	11555
1494	11558
1489	11560
1498	11564
1500	11566
1489	11569
1486	11571
1512	11574
1527	11576
1508	11579
1488	11581
1489	11583
1500	11586
1529	11588
1530	11591
1527	11593
1520	11596
1548	11598
1596	11601
1587	11603
1536	11607
1492	11609
1478	11612
1486	11614
1505	11616
1509	11619
1490	11621
1487	11624
1521	11626
1527	11629
1505	11631
1511	11634
1513	11636
1507	11639
1482	11641
1474	11643
1509	11646
1520	11649
1501	11652
1480	11654
1492	11657
1489	11659
1476	11662
1469	11664
1463	11667
1472	11669
1527	11671
1531	11674
1509	11676
1485	11679
1480	11681
1493	11684
1499	11686
1487	11689
1481	11692
1482	11695
1478	11697
1469	11699
1483	11702
1498	11704
1494	11707
1475	11709
1454	11712
1444	11714
1460	11717
1553	11719
1635	11722
1623	11724
1561	11727
1518	11729
1485	11731
1470	11735
1491	11737
1519	11740
1512	11742
1477	11745
1454	11747
1435	11750
1424	11752
1423	11755
1440	11757
1509	11759
1560	11762
1532	11764
1488	11767
1520	11769
1565	11772
1571	11774
1542	11778
1499	11780
1494	11783
1485	11785
1471	11787
1479	11790
1507	11792
1523	11795
1543	11797
1533	11800
1521	11802
1538	11805
1531	11807
1510	11810
1481	11812
1476	11814
1498	11817
1513	11820
1487	11823
1454	11825
1468	11828
1486	11830
1469	11833
1469	11835
1482	11838
1470	11840
1459	11843
1472	11845
1488	11847
1485	11850
1466	11852
1442	11855
1432	11857
1486	11860
1520	11863
1513	11866
1492	11868
1470	11871
1453	11873
1457	11875
1478	11878
1502	11880
1515	11883
1525	11885
1505	11888
1473	11890
1473	11893
1514	11895
1562	11898
1574	11900
1545	11902
1508	11906
1484	11908
1459	11911
1466	11913
1486	11916
1503	11918
1492	11921
1503	11923
1527	11926
1557	11928
1560	11931
1539	11933
1504	11935
1514	11938
1506	11940
1489	11943
1471	11945
1463	11949
1472	11951
1516	11954
1561	11956
1583	11959
1558	11961
1554	11963
1538	11966
1488	11968
1470	11971
1475	11973
1483	11976
1505	11978
1533	11981
1520	11983
1513	11986
1563	11988
1559	11991
1552	11994
1542	11996
1515	11999
1473	12001
1454	12004
1445	12006
1448	12009
1458	12011
1508	12014
1553	12016
1525	12019
1494	12021
1480	12023
1479	12026
1453	12028
1436	12032
1458	12034
1467	12037
1454	12039
1468	12042
1510	12044
1540	12047
1559	12049
1542	12051
1544	12054
1526	12056
1488	12059
1487	12061
1482	12064
1465	12066
1457	12069
1471	12071
1521	12075
1534	12077
1524	12079
1497	12082
1482	12084
1506	12087
1508	12089
1498	12092
1482	12094
1458	12097
1438	12099
1446	12102
1472	12104
1484	12107
1509	12109
1561	12111
1573	12114
1522	12116
1459	12120
1431	12122
1475	12125
1520	12127
1546	12130
1543	12132
1509	12135
1459	12137
1458	12139
1453	12142
1436	12144
1428	12147
1434	12149
1480	12152
1592	12154
1618	12157
1579	12160
1525	12163
1499	12165
1505	12167
1493	12170
1452	12172
1416	12175
1404	12177
1406	12180
1448	12182
1492	12185
1525	12187
1545	12190
1535	12192
1507	12195
1475	12197
1439	12199
1426	12203
1424	12205
1442	12208
1483	12210
1502	12213
1534	12215
1591	12218
1599	12220
1568	12223
1556	12225
1517	12227
1477	12230
1464	12232
1500	12235
1533	12237
1529	12240
1510	12242
1511	12246
1545	12248
1555	12251
1530	12253
1488	12255
1450	12258
1453	12260
1468	12263
1465	12265
1467	12268
1494	12270
1525	12273
1576	12275
1575	12278
1533	12280
1486	12283
1473	12285
1500	12288
1507	12291
1501	12293
1465	12296
1449	12298
1453	12301
1460	12303
1489	12306
1530	12308
1568	12311
1553	12313
1526	12315
1483	12318
1452	12320
1463	12323
1480	12325
1536	12328
1566	12331
1544	12334
1493	12336
1459	12339
1455	12341
1509	12343
1538	12346
1537	12348
1514	12351
1528	12353
1564	12356
1559	12358
1528	12361
1502	12363
1490	12366
1485	12368
1494	12371
1481	12374
1497	12376
1521	12379
1531	12381
1511	12384
1471	12386
1435	12389
1424	12391
1419	12394
1419	12396
1432	12399
1468	12401
1536	12403
1580	12406
1565	12408
1524	12411
1488	12413
1482	12417
1521	12419
1548	12422
1523	12424
1495	12427
1491	12429
1523	12431
1559	12434
1538	12436
1500	12439
1484	12441
1513	12444
1518	12446
1502	12449
1499	12451
1486	12454
1475	12456
1503	12459
1526	12462
1512	12464
1481	12467
1459	12469
1455	12472
1486	12474
1537	12477
1533	12479
1514	12482
1509	12484
1501	12487
1488	12489
1466	12491
1457	12494
1466	12496
1501	12499
1524	12502
1551	12505
1569	12507
1551	12510
1522	12512
1510	12515
1517	12517
1519	12519
1511	12522
1506	12524
1517	12527
1506	12529
1482	12532
1503	12534
1513	12537
1509	12539
1517	12542
1537	12545
1558	12547
1551	12550
1546	12552
1555	12555
1547	12557
1544	12560
1528	12562
1538	12565
1573	12567
1561	12570
1513	12572
1467	12575
1453	12577
1471	12579
1520	12582
1530	12584
1524	12588
1509	12590
1486	12593
1470	12595
1455	12598
1454	12600
1468	12603
1530	12605
1599	12607
1600	12610
1564	12612
1545	12615
1552	12617
1578	12620
1552	12622
1525	12625
1510	12627
1504	12631
1516	12633
1550	12635
1561	12638
1532	12640
1493	12643
1457	12645
1442	12648
1448	12650
1482	12653
1522	12655
1530	12658
1504	12660
1477	12662
1506	12665
1532	12667
1517	12670
1504	12673
1501	12676
1490	12678
1517	12681
1532	12683
1511	12686
1490	12688
1482	12691
1462	12693
1442	12695
1451	12698
1460	12700
1472	12703
1477	12705
1476	12708
1486	12710
1500	12713
1512	12716
1495	12719
1502	12721
1521	12723
1538	12726
1535	12728
1536	12731
1530	12733
1527	12736
1516	12738
1499	12741
1487	12743
1490	12746
1487	12748
1500	12750
1486	12753
1456	12755
1482	12759
1584	12761
1603	12764
1556	12766
1511	12769
1468	12771
1473	12774
1470	12776
1462	12779
1450	12781
1459	12783
1478	12786
1475	12788
1462	12791
1456	12793
1486	12796
1509	12798
1544	12802
1582	12804
1577	12807
1542	12809
1501	12811
1483	12814
1498	12816
1508	12819
1510	12821
1505	12824
1508	12826
1521	12829
1514	12831
1497	12834
1497	12836
1555	12838
1614	12841
1591	12844
1533	12847
1479	12849
1440	12852
1430	12854
1441	12857
1469	12859
1499	12862
1514	12864
1513	12867
1498	12869
1483	12871
1481	12874
1486	12876
1474	12879
1467	12881
1466	12884
1482	12887
1493	12890
1504	12892
1510	12895
1503	12897
1509	12899
1532	12902
1553	12904
1555	12907
1529	12909
1491	12912
1479	12914
1504	12917
1535	12919
1544	12922
1547	12924
1538	12926
1516	12930
1503	12932
1495	12935
1508	12937
1549	12940
1548	12942
1526	12945
1516	12947
1505	12950
1494	12952
1479	12955
1466	12957
1463	12959
1472	12962
1526	12964
1558	12967
1552	12969
1541	12973
1527	12975
1512	12978
1498	12980
1481	12983
1497	12985
1504	12987
1540	12990
1553	12992
1550	12995
1530	12997
1499	13000
1475	13002
1467	13005
1508	13007
1543	13010
1542	13012
1516	13015
1491	13018
1465	13020
1460	13023
1477	13025
1479	13028
1473	13030
1475	13033
1500	13035
1527	13038
1536	13040
1541	13042
1565	13045
1573	13047
1549	13050
1531	13052
1532	13056
1524	13058
1521	13061
1526	13063
1544	13066
1546	13068
1566	13071
1557	13073
1535	13075
1536	13078
1528	13080
1528	13083
1526	13085
1550	13088
1562	13090
1541	13093
1547	13095
1584	13099
1570	13101
1526	13103
1510	13106
1540	13108
1545	13111
1522	13113
1475	13116
1435	13118
1432	13121
1447	13123
1467	13126
1472	13128
1465	13130
1508	13133
1554	13135
1567	13138
1519	13140
1457	13144
1431	13146
1454	13149
1447	13151
1431	13154
1412	13156
1411	13159
1413	13161
1412	13163
1434	13166
1452	13168
1508	13171
1557	13173
1554	13176
1535	13178
1514	13181
1483	13184
1462	13187
1453	13189
1430	13191
1412	13194
1429	13196
1439	13199
1452	13201
1472	13204
1508	13206
1521	13209
1553	13211
1553	13214
1516	13216
1535	13218
1551	13221
1525	13223
1491	13227
1471	13229
1461	13232
1444	13234
1429	13237
1430	13239
1436	13242
1456	13244
1483	13246
1480	13249
1464	13251
1468	13254
1539	13256
1560	13259
1566	13261
1536	13264
1503	13266
1492	13270
1518	13272
1531	13275
1535	13277
1509	13279
1474	13282
1451	13284
1457	13287
1491	13289
1543	13292
1538	13294
1509	13297
1463	13299
1460	13302
1476	13304
1505	13306
1522	13309
1506	13312
1481	13315
1459	13317
1437	13320
1418	13322
1429	13325
1445	13327
1460	13330
1490	13332
1524	13334
1528	13337
1503	13339
1487	13342
1474	13344
1460	13347
1441	13349
1444	13352
1463	13355
1488	13358
1501	13360
1516	13363
1527	13365
1524	13367
1547	13370
1559	13372
1552	13375
1535	13377
1527	13380
1523	13382
1541	13385
1550	13387
1554	13390
1550	13392
1542	13394
1546	13398
1541	13400
1527	13403
1518	13405
1514	13408
1515	13410
1505	13413
1491	13415
1481	13418
1481	13420
1531	13422
1563	13425
1548	13427
1525	13430
1515	13432
1490	13435
1485	13437
1531	13441
1573	13443
1591	13446
1580	13448
1543	13451
1502	13453
1492	13455
1488	13458
1471	13460
1451	13463
1457	13465
1462	13468
1467	13470
1491	13473
1489	13475
1501	13478
1510	13480
1530	13483
1519	13486
1488	13488
1456	13491
1439	13493
1420	13496
1417	13498
1460	13501
1505	13503
1509	13506
1504	13508
1533	13510
1566	13513
1571	13515
1558	13518
1521	13520
1498	13523
1478	13526
1460	13529
1495	13531
1540	13534
1581	13536
1583	13539
1541	13541
1493	13543
1505	13546
1540	13548
1543	13551
1515	13553
1474	13556
1458	13558
1466	13561
1486	13563
1503	13566
1483	13569
1458	13571
1442	13574
1425	13576
1446	13579
1464	13581
1470	13584
1464	13586
1462	13589
1455	13591
1447	13594
1427	13596
1446	13598
1478	13601
1488	13603
1485	13606
1461	13608
1445	13612
1457	13614
1481	13617
1517	13619
1563	13622
1579	13624
1566	13627
1550	13629
1513	13631
1469	13634
1434	13636
1418	13639
1434	13641
1462	13644
1446	13646
1441	13649
1469	13651
1494	13655
1505	13657
1514	13659
1503	13662
1474	13664
1479	13667
1472	13669
1464	13672
1488	13674
1494	13677
1478	13679
1458	13682
1446	13684
1466	13686
1481	13689
1475	13691
1480	13694
1479	13697
1497	13700
1547	13702
1535	13705
1516	13707
1513	13710
1516	13712
1494	13714
1473	13717
1481	13719
1479	13722
1499	13724
1515	13727
1545	13729
1560	13732
1538	13734
1516	13737
1493	13740
1469	13743
1471	13745
1472	13747
1461	13750
1456	13752
1451	13755
1453	13757
1464	13760
1458	13762
1448	13765
1475	13767
1489	13770
1457	13772
1426	13774
1458	13777
1498	13779
1494	13783
1476	13785
1458	13788
1458	13790
1453	13793
1451	13795
1449	13798
1485	13800
1543	13802
1565	13805
1560	13807
1523	13810
1478	13812
1440	13815
1444	13817
1443	13820
1430	13822
1424	13826
1429	13828
1431	13831
1424	13833
1414	13835
1414	13838
1423	13840
1444	13843
1461	13845
1515	13848
1572	13850
1565	13853
1539	13855
1512	13858
1492	13860
1488	13862
1506	13865
1512	13868
1515	13871
1512	13873
1494	13876
1469	13878
1450	13881
1440	13883
1435	13886
1468	13888
1505	13890
1514	13893
1522	13895
1547	13898
1568	13900
1588	13903
1565	13905
1531	13908
1521	13911
1511	13914
1486	13916
1489	13918
1497	13921
1512	13923
1513	13926
1505	13928
1514	13931
1511	13933
1545	13936
1591	13938
1587	13941
1557	13943
1515	13946
1468	13948
1439	13950
1417	13954
1416	13956
1421	13959
1433	13961
1446	13964
1490	13966
1533	13969
1545	13971
1528	13974
1518	13976
1515	13978
1489	13981
1471	13983
1484	13986
1489	13988
1509	13991
1543	13993
1543	13997
1536	13999
1525	14002
1503	14004
1507	14006
1510	14009
1506	14011
1489	14014
1490	14016
1499	14019
1499	14021
1483	14024
1465	14026
1460	14029
1472	14031
1473	14034
1462	14036
1436	14039
1423	14042
1419	14044
1418	14047
1427	14049
1438	14052
1446	14054
1465	14057
1481	14059
1499	14062
1523	14064
1518	14066
1503	14069
1512	14071
1525	14074
1511	14076
1502	14080
1482	14082
1500	14085
1561	14087
1576	14090
1545	14092
1495	14094
1474	14097
1492	14099
1553	14102
1590	14104
1549	14107
1492	14109
1487	14112
1518	14114
1512	14117
1470	14119
1436	14123
1434	14125
1455	14127
1477	14130
1468	14132
1441	14135
1420	14137
1429	14140
1452	14142
1457	14145
1453	14147
1454	14150
1459	14152
1466	14154
1509	14157
1540	14159
1546	14162
1554	14164
1542	14168
1517	14170
1481	14173
1476	14175
1479	14178
1471	14180
1470	14182
1453	14185
1428	14187
1417	14190
1415	14192
1413	14195
1413	14197
1420	14200
1440	14202
1461	14205
1466	14208
1497	14211
1552	14213
1559	14215
1536	14218
1506	14220
1483	14223
1460	14225
1446	14228
1443	14230
1441	14233
1442	14235
1444	14238
1455	14240
1459	14242
1456	14245
1454	14247
1455	14251
1460	14253
1464	14256
1463	14258
1463	14261
1464	14263
1464	14266
1470	14268
1475	14270
1478	14273
1481	14275
1487	14278
1494	14280
1496	14283
1498	14285
1503	14288
1512	14290
1530	14294
1553	14296
1565	14298
1578	14301
1589	14303
1585	14306
1571	14308
1553	14311
1549	14313
1533	14316
1518	14318
1506	14321
1499	14323
1495	14326
1494	14328
1489	14330
1482	14333
1475	14336
1470	14339
1467	14341
1467	14344
1469	14346
1472	14349
1473	14351
1475	14354
1477	14356
1478	14358
1479	14361
1479	14363
1480	14366
1481	14368
1482	14371
1482	14373
1483	14376
1483	14379
1484	14382
1483	14384
1480	14386
1477	14389
1473	14391
1473	14394
1477	14396
1482	14399
1485	14401
1487	14404
1489	14406
1493	14409
1495	14411
1496	14414
1498	14416
1499	14418
1502	14422
1508	14424
1533	14427
1548	14429
1539	14432
1517	14434
1500	14437
1490	14439
1484	14442
1477	14444
1473	14446
1470	14449
1469	14451
1470	14454
1471	14456
1472	14459
1473	14461
1476	14465
1480	14467
1483	14470
1485	14472
1486	14474
1487	14477
1487	14479
1487	14482
1487	14484
1488	14487
1490	14489
1490	14492
1490	14494
1490	14497
1490	14499
1491	14502
1491	14504
1492	14507
1493	14510
1496	14512
1504	14515
1506	14517
1504	14520
1499	14522
1495	14525
1493	14527
1493	14530
1494	14532
1494	14534
1493	14537
1495	14539
1502	14542
1505	14544
1501	14547
1496	14550
1493	14553
1492	14555
1493	14558
1494	14560
1493	14562
1492	14565
1491	14567
1491	14570
1493	14572
1494	14575
1494	14577
1493	14580
1495	14582
1497	14585
1499	14587
1501	14590
1499	14593
1496	14595
1495	14598
1496	14600
1496	14603
1500	14605
1505	14608
1508	14610
1512	14613
1510	14615
1505	14618
1501	14620
1500	14622
1499	14625
1499	14627
1503	14630
1511	14632
1516	14636
1517	14638
1516	14641
1512	14643
1508	14646
1502	14648
1498	14650
1496	14653
1495	14655
1495	14658
1495	14660
1494	14663
1498	14665
1501	14668
1501	14670
1501	14673
1501	14675
1500	14679
1501	14681
1502	14683
1502	14686
1511	14688
1518	14691
1521	14693
1525	14696
1530	14698
1532	14701
1535	14703
1538	14706
1533	14708
1523	14710
1515	14713
1514	14715
1519	14718
1521	14721
1519	14724
1517	14726
1516	14729
1511	14731
1507	14734
1505	14736
1505	14738
1506	14741
1505	14743
1504	14746
1504	14748
1502	14751
1501	14753
1504	14756
1504	14758
1507	14761
1517	14764
1528	14766
1528	14769
1521	14771
1513	14774
1505	14776
1508	14779
1507	14781
1505	14784
1502	14786
1501	14789
1500	14791
1501	14794
1501	14796
1501	14798
1501	14801
1501	14803
1503	14807
1508	14809
1514	14812
1517	14814
1522	14817
1525	14819
1523	14822
1518	14824
1514	14826
1516	14829
1527	14831
1531	14834
1534	14836
1535	14839
1534	14841
1534	14844
1537	14846
1544	14850
1544	14852
1534	14854
1519	14857
1507	14859
1500	14862
1495	14864
1491	14867
1488	14869
1487	14872
1486	14874
1486	14877
1486	14879
1488	14882
1490	14884
1491	14886
1490	14889
1490	14892
1489	14895
1488	14897
1488	14900
1488	14902
1491	14905
1490	14907
1488	14910
1488	14912
1490	14914
1491	14917
1493	14919
1495	14922
1497	14924
1498	14927
1498	14929
1497	14932
1495	14935
1495	14938
1495	14940
1498	14942
1502	14945
1503	14947
1505	14950
1507	14952
1507	14955
1506	14957
1503	14960
1499	14962
1496	14965
1495	14967
1493	14970
1493	14972
1492	14974
1492	14978
1492	14980
1491	14983
1491	14985
1491	14988
1491	14990
1490	14993
1490	14995
1489	14998
1488	15000
1489	15002
1491	15005
1492	15007
1492	15010
1493	15012
1494	15015
1494	15017
1496	15021
1496	15023
1497	15026
1498	15028
1499	15030
1499	15033
1499	15035
1499	15038
1499	15040
1498	15043
1498	15045
1497	15048
1499	15050
1500	15053
1502	15055
1501	15058
1499	15060
1496	15063
1494	15066
1493	15068
1494	15071
1497	15073
1499	15076
1499	15078
1497	15081
1493	15083
1491	15086
1490	15088
1490	15090
1489	15093
1489	15095
1489	15098
1489	15100
1489	15104
1488	15106
1488	15109
1488	15111
1488	15114
1488	15116
1489	15118
1489	15121
1489	15123
1490	15126
1491	15128
1491	15131
1491	15133
1491	15136
1492	15138
1493	15141
1495	15143
1497	15147
1497	15149
1496	15151
1494	15154
1492	15156
1494	15159
1497	15161
1498	15164
1498	15166
1497	15169
1496	15171
1497	15174
1499	15176
1499	15178
1496	15181
1492	15183
1489	15186
1488	15188
1486	15192
1485	15194
1485	15197
1485	15199
1485	15202
1485	15204
1485	15206
1485	15209
1486	15211
1486	15214
1486	15216
1485	15219
1486	15221
1486	15224
1487	15226
1487	15229
1488	15232
1488	15234
1488	15237
1489	15239
1490	15242
1492	15244
1493	15247
1492	15249
1490	15252
1490	15254
1490	15257
1490	15259
1490	15262
1491	15264
1491	15266
1492	15269
1493	15271
1493	15275
1494	15277
1494	15280
1494	15282
1494	15285
1493	15287
1492	15290
1492	15292
1493	15294
1493	15297
1493	15299
1493	15302
1493	15304
1493	15307
1492	15309
1492	15312
1492	15314
1492	15318
1492	15320
1492	15322
1492	15325
1492	15327
1492	15330
1492	15332
1493	15335
1493	15337
1493	15340
1493	15342
1492	15345
1492	15347
1492	15350
1493	15352
1492	15354
1492	15357
1492	15360
1492	15363
1492	15365
1493	15368
1495	15370
1496	15373
1497	15375
1496	15378
