emg;time
1498;2
1497;4
1496;7
1495;9
1494;11
1492;13
1491;16
1490;18
1490;20
1489;23
1488;25
1488;27
1487;30
1487;32
1486;34
1486;36
1485;39
1485;41
1484;44
1484;47
1484;49
1483;51
1483;54
1483;56
1483;58
1483;61
1482;63
1482;65
1482;67
1482;70
1482;72
1482;74
1483;77
1483;79
1483;81
1483;84
1485;87
1486;89
1485;91
1485;94
1484;96
1483;98
1483;101
1482;103
1482;105
1481;108
1480;110
1479;112
1479;115
1478;117
1478;120
1478;122
1478;124
1477;128
1477;130
1476;132
1476;135
1475;137
1475;139
1475;142
1475;144
1475;146
1475;149
1475;151
1475;153
1476;156
1476;158
1476;161
1477;163
1477;165
1478;168
1479;171
1479;173
1480;176
1481;178
1482;180
1482;183
1482;185
1482;187
1482;190
1482;192
1483;195
1483;197
1483;199
1483;202
1482;204
1482;206
1482;209
1482;211
1482;214
1482;217
1482;219
1482;221
1483;224
1484;226
1484;228
1485;231
1486;233
1487;236
1488;238
1489;240
1490;243
1490;245
1491;247
1492;250
1494;252
1494;254
1495;258
1495;260
1495;262
1495;265
1496;267
1496;269
1497;272
1497;274
1497;277
1498;279
1498;281
1498;284
1499;286
1499;288
1500;291
1500;293
1501;295
1502;299
1503;301
1503;303
1504;306
1504;308
1504;311
1504;313
1503;315
1503;318
1504;320
1505;322
1505;325
1505;327
1505;329
1505;332
1505;334
1505;336
1505;339
1506;342
1506;344
1506;347
1506;349
1507;352
1507;354
1508;356
1509;359
1510;361
1510;363
1510;366
1509;368
1509;370
1510;373
1509;375
1509;377
1510;380
1510;382
1510;385
1509;388
1509;390
1508;393
1508;395
1508;397
1510;400
1510;402
1510;404
1510;407
1511;409
1511;411
1510;414
1509;416
1508;418
1507;421
1506;423
1507;427
1507;429
1508;431
1509;434
1510;436
1511;438
1510;441
1507;443
1504;445
1503;448
1501;450
1500;452
1500;455
1500;457
1500;459
1499;462
1499;464
1498;467
1499;470
1499;472
1499;475
1498;477
1497;479
1497;482
1497;484
1498;486
1497;489
1497;491
1498;493
1499;496
1499;498
1499;501
1498;503
1498;505
1498;508
1497;510
1496;513
1495;516
1494;518
1494;520
1494;523
1494;525
1494;527
1494;530
1494;532
1494;534
1494;537
1495;539
1495;542
1495;544
1495;546
1496;549
1497;551
1500;553
1501;557
1501;559
1499;561
1499;564
1497;566
1495;568
1493;571
1492;573
1491;575
1489;578
1489;580
1488;583
1488;585
1487;587
1487;590
1487;592
1487;594
1487;598
1488;600
1487;602
1486;605
1486;607
1487;609
1487;612
1487;614
1487;617
1487;619
1488;621
1488;624
1489;626
1488;628
1487;631
1487;633
1487;635
1487;638
1487;641
1488;643
1488;646
1490;648
1490;650
1491;653
1491;655
1492;658
1492;660
1492;662
1493;665
1493;667
1493;669
1493;672
1494;674
1494;676
1495;679
1495;681
1496;684
1496;687
1496;689
1495;692
1495;694
1494;696
1494;699
1493;701
1493;703
1493;706
1494;708
1494;710
1496;713
1500;715
1503;717
1505;720
1506;722
1505;724
1504;728
1503;730
1503;733
1502;735
1502;737
1502;740
1502;742
1502;744
1501;747
1501;749
1501;751
1501;754
1502;756
1502;758
1502;761
1503;763
1503;766
1503;769
1503;771
1503;774
1503;776
1503;778
1503;781
1503;783
1504;785
1504;788
1504;790
1505;792
1506;795
1507;797
1507;799
1506;802
1505;804
1504;807
1503;809
1503;812
1503;815
1501;817
1499;819
1498;822
1498;824
1498;826
1497;829
1496;831
1495;833
1495;836
1495;838
1495;841
1494;843
1494;845
1494;848
1493;850
1493;852
1493;856
1493;858
1491;860
1491;863
1491;865
1490;867
1490;870
1490;872
1492;874
1492;877
1491;879
1490;882
1490;884
1491;886
1491;889
1491;891
1492;893
1492;897
1492;899
1493;901
1493;904
1493;906
1494;908
1494;911
1494;913
1494;915
1496;918
1496;920
1496;923
1496;925
1496;927
1496;930
1496;932
1495;934
1496;937
1498;940
1498;942
1498;945
1499;947
1498;949
1498;952
1498;954
1498;957
1500;959
1501;961
1502;964
1502;966
1501;968
1501;971
1501;973
1501;975
1501;978
1501;980
1501;983
1501;986
1501;988
1501;990
1502;993
1502;995
1502;998
1503;1000
1503;1002
1503;1005
1503;1007
1503;1010
1503;1012
1503;1014
1503;1017
1502;1019
1501;1022
1501;1025
1501;1027
1501;1030
1501;1032
1500;1035
1500;1037
1499;1039
1498;1042
1496;1044
1496;1047
1495;1049
1495;1051
1495;1054
1494;1056
1494;1059
1493;1061
1492;1063
1492;1067
1492;1069
1491;1072
1491;1074
1490;1076
1490;1079
1490;1081
1490;1084
1490;1086
1489;1088
1488;1091
1488;1093
1489;1096
1489;1098
1489;1100
1488;1103
1489;1105
1488;1108
1489;1111
1488;1114
1488;1116
1488;1118
1488;1121
1487;1123
1488;1126
1488;1128
1489;1130
1489;1133
1489;1135
1488;1138
1488;1140
1488;1142
1489;1145
1490;1147
1490;1150
1489;1153
1488;1155
1488;1158
1487;1160
1488;1163
1489;1165
1489;1167
1489;1170
1488;1172
1488;1175
1488;1177
1487;1179
1487;1182
1487;1184
1486;1187
1486;1189
1486;1191
1485;1195
1485;1197
1484;1200
1484;1202
1484;1205
1484;1207
1484;1209
1484;1212
1484;1214
1484;1217
1484;1219
1485;1221
1486;1224
1485;1226
1485;1229
1485;1231
1484;1233
1484;1236
1485;1239
1487;1242
1487;1244
1487;1246
1486;1249
1486;1251
1486;1254
1487;1256
1488;1258
1489;1261
1490;1263
1490;1266
1489;1268
1490;1270
1490;1273
1491;1275
1492;1278
1493;1281
1494;1283
1495;1286
1496;1288
1497;1291
1498;1293
1498;1296
1499;1298
1501;1300
1501;1303
1500;1305
1499;1308
1499;1310
1499;1312
1499;1315
1499;1317
1498;1320
1498;1323
1498;1325
1498;1328
1498;1330
1498;1333
1499;1335
1500;1337
1501;1340
1501;1342
1502;1345
1501;1347
1501;1349
1501;1352
1501;1354
1501;1357
1501;1359
1501;1361
1501;1364
1502;1367
1502;1370
1502;1372
1503;1374
1503;1377
1503;1379
1504;1382
1504;1384
1504;1386
1505;1389
1505;1391
1505;1394
1505;1396
1506;1399
1506;1401
1505;1403
1505;1406
1505;1409
1505;1412
1506;1414
1506;1416
1506;1419
1507;1421
1507;1424
1507;1426
1507;1428
1507;1431
1507;1433
1508;1436
1509;1438
1510;1440
1510;1443
1510;1445
1510;1448
1510;1451
1509;1453
1509;1456
1509;1458
1508;1461
1507;1463
1506;1465
1506;1468
1505;1470
1505;1473
1506;1475
1507;1477
1507;1480
1506;1482
1505;1485
1504;1487
1504;1490
1503;1492
1503;1495
1503;1498
1503;1500
1502;1503
1502;1505
1503;1507
1505;1510
1505;1512
1504;1515
1504;1517
1504;1519
1505;1522
1506;1524
1507;1527
1507;1529
1507;1531
1509;1534
1509;1537
1509;1540
1508;1542
1507;1544
1506;1547
1505;1549
1505;1552
1506;1554
1506;1556
1506;1559
1505;1561
1504;1564
1503;1566
1503;1569
1504;1571
1504;1573
1506;1576
1506;1579
1507;1582
1511;1584
1515;1586
1514;1589
1513;1591
1511;1594
1509;1596
1508;1598
1507;1601
1506;1603
1505;1606
1505;1608
1505;1610
1505;1613
1505;1615
1505;1618
1504;1620
1504;1623
1503;1626
1503;1628
1502;1631
1501;1633
1500;1635
1499;1638
1499;1640
1500;1643
1504;1645
1506;1647
1509;1650
1508;1652
1507;1655
1506;1657
1505;1660
1504;1662
1503;1665
1503;1668
1505;1670
1509;1673
1510;1675
1509;1677
1506;1680
1503;1682
1498;1685
1496;1687
1494;1689
1493;1692
1493;1694
1493;1697
1494;1699
1493;1701
1491;1704
1491;1707
1490;1710
1490;1712
1489;1714
1490;1717
1491;1719
1493;1722
1495;1724
1495;1726
1497;1729
1498;1731
1499;1734
1501;1736
1502;1738
1500;1741
1498;1743
1497;1746
1497;1748
1498;1752
1499;1754
1500;1756
1502;1759
1503;1761
1507;1764
1508;1766
1506;1768
1503;1771
1500;1773
1497;1776
1500;1778
1505;1780
1510;1783
1513;1785
1510;1788
1506;1790
1502;1793
1499;1796
1497;1798
1495;1801
1494;1803
1493;1805
1494;1808
1498;1810
1505;1813
1508;1815
1503;1817
1500;1820
1498;1822
1497;1825
1495;1827
1494;1829
1492;1832
1491;1835
1491;1838
1487;1840
1484;1843
1482;1845
1482;1847
1481;1850
1481;1852
1481;1855
1480;1857
1480;1859
1481;1862
1483;1864
1485;1867
1486;1869
1490;1871
1492;1874
1492;1876
1490;1880
1487;1882
1484;1884
1482;1887
1480;1889
1477;1892
1477;1894
1477;1896
1477;1899
1478;1901
1479;1904
1480;1906
1478;1908
1476;1911
1476;1913
1478;1916
1484;1918
1494;1922
1499;1924
1505;1926
1505;1929
1502;1931
1498;1934
1496;1936
1493;1938
1490;1941
1488;1943
1486;1946
1485;1948
1486;1950
1487;1953
1489;1955
1489;1958
1491;1960
1490;1963
1488;1966
1486;1968
1483;1971
1480;1973
1479;1975
1484;1978
1492;1980
1496;1983
1497;1985
1494;1987
1491;1990
1492;1992
1494;1995
1492;1997
1489;1999
1484;2002
1487;2004
1490;2008
1493;2010
1496;2012
1500;2015
1501;2017
1503;2020
1507;2022
1507;2025
1508;2027
1505;2029
1499;2032
1493;2034
1489;2037
1487;2039
1483;2041
1485;2044
1500;2046
1507;2050
1505;2052
1500;2054
1498;2057
1501;2059
1508;2062
1510;2064
1504;2066
1501;2069
1510;2071
1516;2074
1514;2076
1509;2078
1507;2081
1497;2083
1492;2086
1488;2088
1483;2091
1481;2094
1479;2096
1486;2099
1493;2101
1499;2103
1503;2106
1500;2108
1502;2111
1506;2113
1509;2115
1512;2118
1512;2120
1506;2123
1502;2125
1501;2128
1499;2130
1494;2132
1488;2136
1482;2138
1479;2141
1479;2143
1485;2145
1493;2148
1500;2150
1503;2153
1505;2155
1506;2157
1504;2160
1507;2162
1508;2165
1507;2167
1505;2169
1503;2172
1500;2174
1498;2178
1496;2180
1492;2182
1491;2185
1495;2187
1502;2190
1504;2192
1506;2195
1508;2197
1509;2199
1520;2202
1523;2204
1518;2207
1515;2209
1513;2211
1512;2214
1511;2216
1517;2220
1526;2222
1526;2224
1522;2227
1529;2229
1537;2232
1543;2234
1548;2236
1548;2239
1562;2241
1573;2244
1576;2246
1574;2248
1565;2251
1552;2253
1552;2256
1565;2258
1567;2260
1563;2264
1568;2266
1566;2269
1557;2271
1563;2274
1574;2276
1566;2278
1575;2281
1583;2283
1582;2286
1572;2288
1564;2290
1559;2293
1557;2295
1554;2298
1558;2300
1582;2302
1596;2306
1609;2308
1615;2311
1610;2313
1627;2315
1666;2318
1675;2320
1682;2323
1683;2325
1660;2327
1643;2330
1632;2332
1615;2335
1604;2337
1640;2339
1696;2342
1699;2344
1672;2348
1644;2350
1621;2352
1598;2355
1588;2357
1596;2360
1594;2362
1596;2365
1576;2367
1563;2369
1571;2372
1598;2374
1612;2377
1592;2379
1575;2381
1578;2384
1571;2386
1543;2390
1525;2392
1524;2394
1538;2397
1564;2399
1582;2402
1574;2404
1593;2406
1584;2409
1558;2411
1540;2414
1527;2416
1510;2418
1517;2421
1546;2423
1545;2426
1523;2428
1517;2432
1537;2434
1549;2436
1560;2439
1558;2441
1558;2444
1556;2446
1526;2448
1495;2451
1489;2453
1502;2456
1493;2458
1498;2460
1517;2463
1517;2465
1492;2468
1475;2470
1472;2472
1486;2476
1529;2478
1539;2481
1506;2483
1479;2485
1486;2488
1514;2490
1537;2493
1535;2495
1514;2497
1498;2500
1484;2502
1485;2505
1510;2507
1548;2510
1557;2512
1527;2514
1504;2518
1495;2520
1499;2523
1505;2525
1504;2527
1492;2530
1479;2532
1543;2535
1586;2537
1571;2539
1524;2542
1500;2544
1499;2547
1491;2549
1491;2551
1480;2554
1452;2556
1452;2560
1510;2562
1594;2564
1597;2567
1544;2569
1509;2572
1477;2574
1438;2576
1454;2579
1493;2581
1511;2584
1503;2586
1560;2589
1560;2591
1520;2593
1462;2596
1427;2598
1409;2601
1409;2604
1423;2606
1463;2609
1509;2611
1545;2614
1558;2616
1533;2618
1483;2621
1445;2623
1432;2626
1463;2628
1500;2630
1494;2633
1451;2635
1438;2638
1453;2640
1466;2642
1516;2646
1528;2648
1493;2651
1455;2653
1444;2655
1500;2658
1513;2660
1457;2663
1450;2665
1481;2667
1490;2670
1454;2672
1477;2675
1496;2677
1497;2679
1507;2682
1517;2684
1493;2688
1475;2690
1464;2693
1433;2695
1426;2697
1431;2700
1426;2702
1431;2705
1432;2707
1440;2709
1433;2712
1422;2714
1416;2717
1435;2719
1460;2721
1478;2724
1454;2726
1432;2729
1448;2732
1496;2734
1494;2737
1459;2739
1429;2742
1420;2744
1440;2746
1454;2749
1449;2751
1454;2754
1472;2756
1478;2758
1454;2761
1443;2763
1439;2766
1435;2768
1432;2771
1451;2774
1472;2776
1473;2779
1446;2781
1437;2784
1459;2786
1468;2788
1461;2791
1468;2793
1474;2796
1460;2798
1454;2800
1508;2803
1502;2805
1455;2808
1403;2810
1433;2812
1449;2816
1443;2818
1434;2821
1428;2823
1423;2825
1455;2828
1474;2830
1464;2833
1434;2835
1412;2837
1410;2840
1415;2842
1473;2845
1503;2847
1481;2849
1434;2852
1443;2854
1459;2857
1444;2860
1409;2863
1395;2865
1438;2867
1458;2870
1437;2872
1407;2875
1416;2877
1448;2879
1475;2882
1466;2884
1450;2887
1433;2889
1431;2891
1438;2894
1433;2896
1456;2899
1482;2902
1483;2904
1493;2907
1527;2909
1524;2912
1476;2914
1468;2916
1451;2919
1427;2921
1418;2924
1427;2926
1455;2928
1454;2931
1437;2933
1429;2936
1448;2938
1487;2940
1477;2944
1429;2946
1402;2949
1393;2951
1406;2954
1415;2956
1410;2958
1407;2961
1424;2963
1466;2966
1486;2968
1472;2970
1439;2973
1451;2975
1496;2978
1513;2980
1476;2982
1431;2985
1412;2988
1421;2991
1439;2993
1468;2995
1469;2998
1460;3000
1468;3003
1512;3005
1510;3007
1497;3010
1482;3012
1455;3015
1436;3017
1428;3019
1415;3022
1412;3024
1451;3027
1515;3030
1524;3033
1478;3035
1452;3037
1442;3040
1464;3042
1484;3045
1490;3047
1478;3049
1479;3052
1486;3054
1492;3057
1481;3059
1457;3061
1435;3064
1431;3066
1433;3069
1441;3072
1451;3074
1510;3077
1547;3079
1518;3082
1468;3084
1466;3086
1491;3089
1502;3091
1484;3094
1464;3096
1482;3098
1475;3101
1462;3103
1451;3106
1448;3108
1456;3111
1468;3113
1460;3116
1441;3119
1515;3121
1543;3124
1492;3126
1448;3128
1423;3131
1417;3133
1423;3136
1454;3138
1456;3140
1448;3143
1451;3145
1483;3148
1481;3150
1470;3152
1484;3155
1501;3158
1509;3161
1522;3163
1519;3165
1497;3168
1480;3170
1477;3173
1492;3175
1497;3177
1493;3180
1481;3182
1469;3185
1487;3187
1522;3190
1528;3192
1505;3194
1489;3197
1514;3200
1498;3203
1466;3205
1454;3207
1441;3210
1426;3212
1437;3215
1487;3217
1504;3219
1500;3222
1465;3224
1441;3227
1432;3229
1448;3231
1483;3234
1511;3236
1508;3239
1485;3241
1476;3244
1469;3247
1476;3249
1497;3252
1502;3254
1511;3256
1518;3259
1499;3261
1502;3264
1494;3266
1454;3268
1428;3271
1446;3273
1484;3276
1518;3278
1524;3281
1503;3283
1469;3286
1459;3289
1495;3291
1502;3294
1476;3296
1444;3298
1445;3301
1476;3303
1503;3306
1509;3308
1507;3310
1490;3313
1507;3315
1574;3318
1580;3320
1533;3322
1488;3325
1482;3328
1475;3331
1477;3333
1485;3335
1466;3338
1442;3340
1442;3343
1494;3345
1534;3347
1556;3350
1515;3352
1474;3355
1458;3357
1469;3359
1488;3362
1491;3364
1498;3367
1500;3369
1483;3373
1451;3375
1449;3377
1468;3380
1468;3382
1474;3385
1486;3387
1514;3389
1498;3392
1481;3394
1485;3397
1512;3399
1520;3401
1494;3404
1465;3406
1445;3409
1428;3411
1418;3414
1440;3417
1516;3419
1552;3422
1519;3424
1479;3426
1459;3429
1480;3431
1484;3434
1474;3436
1433;3438
1411;3441
1422;3443
1514;3446
1546;3448
1524;3450
1490;3453
1504;3456
1523;3459
1516;3461
1507;3464
1523;3466
1555;3468
1545;3471
1511;3473
1481;3476
1455;3478
1455;3480
1461;3483
1515;3485
1571;3488
1581;3490
1530;3492
1472;3495
1428;3497
1403;3501
1430;3503
1474;3505
1510;3508
1510;3510
1508;3513
1488;3515
1476;3517
1486;3520
1488;3522
1469;3525
1454;3527
1448;3530
1476;3532
1524;3534
1541;3537
1541;3539
1527;3543
1486;3545
1464;3547
1454;3550
1452;3552
1481;3555
1522;3557
1525;3559
1517;3562
1518;3564
1529;3567
1506;3569
1480;3571
1502;3574
1547;3576
1577;3579
1565;3581
1542;3584
1512;3587
1474;3589
1467;3592
1459;3594
1457;3596
1470;3599
1453;3601
1471;3604
1550;3606
1570;3608
1534;3611
1484;3613
1475;3616
1489;3618
1501;3621
1527;3623
1531;3625
1501;3629
1465;3631
1472;3634
1488;3636
1501;3638
1513;3641
1533;3643
1553;3646
1504;3648
1455;3650
1422;3653
1432;3655
1486;3658
1552;3660
1562;3662
1509;3665
1475;3667
1459;3671
1443;3673
1474;3675
1509;3678
1512;3680
1495;3683
1519;3685
1514;3688
1500;3690
1497;3692
1503;3695
1492;3697
1514;3700
1541;3702
1522;3704
1484;3707
1461;3709
1462;3713
1479;3715
1487;3717
1489;3720
1477;3722
1514;3725
1532;3727
1524;3729
1496;3732
1451;3734
1415;3737
1425;3739
1498;3741
1525;3744
1541;3746
1556;3749
1531;3751
1467;3753
1427;3757
1445;3759
1481;3762
1495;3764
1478;3767
1457;3769
1460;3771
1478;3774
1463;3776
1429;3779
1433;3781
1457;3783
1503;3786
1485;3788
1437;3791
1423;3793
1439;3795
1473;3799
1526;3801
1523;3804
1489;3806
1479;3808
1499;3811
1492;3813
1481;3816
1466;3818
1460;3820
1475;3823
1518;3825
1532;3828
1518;3830
1497;3832
1504;3835
1500;3837
1479;3841
1445;3843
1435;3846
1449;3848
1482;3850
1516;3853
1546;3855
1529;3858
1512;3860
1499;3862
1497;3865
1483;3867
1471;3870
1453;3872
1445;3874
1449;3877
1474;3879
1502;3883
1513;3885
1503;3887
1468;3890
1479;3892
1521;3895
1520;3897
1505;3899
1486;3902
1497;3904
1553;3907
1563;3909
1529;3911
1467;3914
1442;3916
1453;3919
1467;3921
1479;3923
1481;3927
1469;3929
1461;3932
1470;3934
1489;3937
1499;3939
1493;3941
1502;3944
1514;3946
1518;3949
1498;3951
1473;3953
1493;3956
1495;3958
1475;3961
1459;3963
1452;3965
1467;3969
1515;3971
1532;3974
1509;3976
1451;3978
1435;3981
1470;3983
1522;3986
1530;3988
1542;3990
1568;3993
1542;3995
1482;3998
1450;4000
1444;4002
1472;4005
1493;4007
1480;4011
1463;4013
1486;4016
1575;4018
1581;4020
1557;4023
1524;4025
1500;4028
1469;4030
1448;4032
1432;4035
1483;4037
1532;4040
1535;4042
1502;4044
1499;4047
1489;4049
1471;4052
1464;4055
1492;4057
1541;4060
1552;4062
1532;4065
1502;4067
1518;4069
1534;4072
1520;4074
1475;4077
1451;4079
1447;4081
1478;4084
1540;4086
1544;4089
1528;4091
1528;4093
1509;4097
1449;4099
1432;4102
1442;4104
1473;4107
1539;4109
1544;4111
1491;4114
1462;4116
1481;4119
1476;4121
1448;4123
1437;4126
1470;4128
1495;4131
1498;4133
1475;4135
1470;4139
1489;4141
1483;4144
1447;4146
1439;4148
1487;4151
1495;4153
1479;4156
1458;4158
1461;4160
1464;4163
1474;4165
1481;4168
1479;4170
1500;4172
1536;4175
1530;4177
1482;4180
1447;4183
1412;4186
1433;4188
1481;4190
1499;4193
1472;4195
1430;4198
1443;4200
1443;4202
1454;4205
1486;4207
1530;4210
1514;4212
1462;4214
1437;4217
1466;4219
1511;4222
1526;4225
1498;4227
1490;4230
1475;4232
1448;4235
1446;4237
1499;4239
1522;4242
1517;4244
1534;4247
1548;4249
1514;4251
1470;4254
1482;4256
1493;4259
1505;4261
1511;4263
1519;4267
1506;4269
1491;4272
1477;4274
1498;4277
1526;4279
1517;4281
1483;4284
1436;4286
1439;4289
1487;4291
1529;4293
1540;4296
1575;4298
1569;4301
1535;4303
1482;4305
1455;4308
1453;4311
1469;4314
1502;4316
1517;4318
1540;4321
1557;4323
1540;4326
1490;4328
1458;4330
1494;4333
1513;4335
1492;4338
1466;4340
1517;4343
1529;4345
1506;4347
1483;4350
1464;4353
1443;4356
1433;4358
1435;4360
1465;4363
1504;4365
1540;4368
1526;4370
1508;4372
1503;4375
1510;4377
1504;4380
1515;4382
1510;4384
1528;4387
1574;4389
1573;4392
1547;4395
1526;4397
1511;4400
1501;4402
1509;4405
1540;4407
1544;4410
1532;4412
1522;4414
1539;4417
1573;4419
1567;4422
1510;4424
1474;4426
1448;4429
1439;4431
1473;4434
1542;4436
1567;4439
1539;4442
1481;4444
1460;4447
1465;4449
1469;4451
1481;4454
1485;4456
1493;4459
1499;4461
1506;4463
1544;4466
1569;4468
1586;4471
1555;4473
1515;4475
1519;4478
1524;4481
1505;4484
1473;4486
1510;4489
1546;4491
1540;4493
1497;4496
1462;4498
1500;4501
1540;4503
1543;4505
1495;4508
1451;4510
1441;4513
1447;4515
1458;4517
1472;4520
1490;4523
1516;4526
1515;4528
1498;4530
1505;4533
1518;4535
1518;4538
1502;4540
1514;4542
1554;4545
1585;4547
1557;4550
1507;4552
1464;4554
1459;4557
1502;4559
1512;4562
1487;4564
1477;4567
1482;4570
1486;4572
1529;4575
1560;4577
1550;4580
1505;4582
1500;4584
1494;4587
1495;4589
1511;4592
1520;4594
1557;4596
1585;4599
1585;4601
1584;4604
1572;4606
1556;4609
1571;4612
1568;4614
1526;4617
1476;4619
1441;4621
1460;4624
1532;4626
1553;4629
1541;4631
1531;4633
1546;4636
1540;4638
1485;4641
1457;4643
1464;4646
1474;4648
1481;4651
1485;4654
1524;4656
1586;4659
1577;4661
1525;4663
1491;4666
1470;4668
1456;4671
1437;4673
1431;4675
1432;4678
1445;4680
1453;4683
1466;4685
1535;4687
1580;4690
1564;4692
1535;4696
1520;4698
1530;4700
1532;4703
1537;4705
1539;4708
1523;4710
1485;4712
1464;4715
1525;4717
1555;4720
1541;4722
1500;4725
1501;4727
1494;4729
1510;4732
1531;4734
1542;4738
1556;4740
1546;4742
1553;4745
1566;4747
1551;4750
1531;4752
1516;4754
1485;4757
1447;4759
1446;4762
1483;4764
1528;4766
1528;4769
1521;4771
1544;4774
1542;4776
1498;4779
1448;4782
1437;4784
1469;4787
1527;4789
1546;4792
1555;4794
1515;4796
1493;4799
1485;4801
1471;4804
1482;4806
1520;4808
1518;4811
1487;4813
1467;4816
1479;4818
1472;4820
1434;4824
1435;4826
1489;4829
1542;4831
1544;4833
1510;4836
1480;4838
1452;4841
1435;4843
1447;4845
1491;4848
1538;4850
1548;4853
1537;4855
1509;4857
1500;4860
1524;4862
1550;4866
1549;4868
1518;4871
1493;4873
1543;4875
1560;4878
1538;4880
1485;4883
1454;4885
1463;4887
1470;4890
1512;4892
1522;4895
1504;4897
1490;4899
1492;4902
1517;4904
1517;4908
1481;4910
1462;4912
1473;4915
1476;4917
1478;4920
1534;4922
1604;4924
1585;4927
1558;4929
1556;4932
1533;4934
1507;4936
1475;4939
1453;4941
1491;4944
1547;4946
1578;4950
1573;4952
1547;4954
1494;4957
1451;4959
1446;4962
1450;4964
1462;4966
1480;4969
1500;4971
1515;4974
1551;4976
1581;4978
1560;4981
1499;4983
1504;4986
1524;4988
1523;4990
1505;4994
1485;4996
1468;4999
1489;5001
1532;5003
1541;5006
1527;5008
1491;5011
1469;5013
1503;5015
1518;5018
1508;5020
1470;5023
1455;5025
1495;5028
1539;5030
1562;5032
1556;5036
1550;5038
1558;5041
1539;5043
1519;5045
1513;5048
1519;5050
1502;5053
1473;5055
1480;5057
1531;5060
1548;5062
1539;5065
1537;5067
1531;5069
1529;5072
1506;5074
1475;5078
1452;5080
1460;5082
1510;5085
1538;5087
1509;5090
1477;5092
1531;5095
1567;5097
1553;5099
1505;5102
1546;5104
1563;5107
1543;5109
1508;5111
1499;5114
1488;5116
1499;5120
1491;5122
1495;5124
1545;5127
1569;5129
1527;5132
1480;5134
1461;5136
1487;5139
1520;5141
1509;5144
1472;5146
1451;5148
1448;5151
1503;5153
1539;5156
1506;5158
1479;5160
1510;5164
1531;5166
1507;5169
1484;5171
1468;5174
1453;5176
1447;5178
1453;5181
1477;5183
1514;5186
1533;5188
1546;5190
1579;5193
1580;5195
1557;5198
1521;5200
1486;5202
1467;5206
1475;5208
1464;5211
1464;5213
1503;5215
1528;5218
1512;5220
1477;5223
1453;5225
1416;5227
1397;5230
1414;5232
1464;5235
1504;5237
1539;5239
1525;5242
1489;5244
1462;5248
1459;5250
1478;5252
1501;5255
1525;5257
1530;5260
1510;5262
1498;5265
1490;5267
1491;5269
1543;5272
1583;5274
1574;5277
1523;5279
1487;5281
1456;5284
1424;5286
1412;5289
1468;5292
1536;5294
1604;5297
1583;5299
1540;5302
1473;5304
1451;5306
1456;5309
1451;5311
1444;5314
1455;5316
1457;5318
1444;5321
1489;5323
1514;5326
1503;5328
1491;5330
1501;5334
1497;5336
1479;5339
1470;5341
1471;5344
1506;5346
1536;5348
1522;5351
1536;5353
1600;5356
1588;5358
1516;5360
1457;5363
1450;5365
1462;5368
1513;5370
1515;5372
1478;5376
1479;5378
1496;5381
1508;5383
1521;5385
1516;5388
1484;5390
1443;5393
1416;5395
1426;5397
1439;5400
1501;5402
1558;5405
1573;5407
1551;5409
1526;5412
1486;5414
1471;5417
1486;5420
1491;5423
1504;5425
1506;5427
1523;5430
1526;5432
1505;5435
1493;5437
1481;5439
1470;5442
1514;5444
1577;5447
1565;5449
1516;5451
1468;5454
1466;5456
1496;5459
1512;5462
1516;5464
1530;5467
1558;5469
1583;5472
1564;5474
1513;5476
1456;5479
1428;5481
1437;5484
1467;5486
1473;5489
1515;5491
1585;5493
1595;5496
1551;5498
1515;5501
1512;5504
1492;5506
1468;5509
1473;5511
1509;5514
1517;5516
1528;5518
1545;5521
1570;5523
1563;5526
1514;5528
1461;5530
1445;5533
1464;5535
1562;5538
1622;5540
1590;5542
1517;5545
1470;5548
1448;5551
1460;5553
1479;5555
1523;5558
1536;5560
1514;5563
1490;5565
1490;5568
1506;5570
1491;5572
1463;5575
1486;5577
1547;5580
1589;5582
1559;5584
1514;5587
1463;5590
1451;5593
1467;5595
1497;5597
1505;5600
1502;5602
1550;5605
1596;5607
1568;5609
1533;5612
1529;5614
1528;5617
1540;5619
1537;5621
1525;5624
1508;5626
1532;5629
1574;5632
1578;5635
1553;5637
1510;5639
1514;5642
1558;5644
1597;5647
1580;5649
1554;5651
1530;5654
1509;5656
1491;5659
1481;5661
1478;5663
1470;5666
1470;5668
1498;5671
1527;5673
1523;5676
1510;5679
1562;5681
1585;5684
1590;5686
1574;5688
1551;5691
1564;5693
1554;5696
1518;5698
1486;5700
1475;5703
1479;5705
1497;5708
1581;5710
1636;5713
1624;5715
1564;5718
1515;5721
1515;5723
1526;5726
1512;5728
1487;5730
1508;5733
1564;5735
1580;5738
1572;5740
1546;5742
1524;5745
1539;5747
1591;5750
1607;5752
1587;5754
1553;5757
1553;5760
1544;5763
1525;5765
1510;5767
1498;5770
1504;5772
1509;5775
1549;5777
1585;5780
1609;5782
1578;5784
1533;5787
1503;5789
1489;5792
1485;5794
1497;5796
1504;5799
1503;5801
1496;5805
1499;5807
1527;5809
1553;5812
1554;5814
1542;5817
1532;5819
1517;5821
1505;5824
1505;5826
1506;5829
1507;5831
1506;5833
1506;5836
1518;5838
1540;5841
1554;5843
1557;5846
1547;5849
1558;5851
1589;5854
1602;5856
1587;5859
1559;5861
1538;5863
1535;5866
1543;5868
1551;5871
1556;5873
1559;5875
1558;5878
1548;5880
1532;5883
1522;5885
1525;5888
1532;5891
1542;5893
1546;5896
1546;5898
1545;5900
1554;5903
1564;5905
1566;5908
1566;5910
1576;5912
1580;5915
1571;5917
1557;5920
1547;5922
1542;5925
1540;5927
1538;5929
1536;5933
1536;5935
1544;5938
1561;5940
1568;5942
1563;5945
1557;5947
1552;5950
1548;5952
1547;5954
1547;5957
1549;5959
1553;5962
1558;5964
1557;5966
1556;5969
1556;5971
1555;5975
1553;5977
1552;5979
1553;5982
1552;5984
1552;5987
1555;5989
1562;5992
1565;5994
1562;5996
1562;5999
1562;6001
1561;6004
1559;6006
1557;6008
1556;6011
1555;6013
1556;6017
1558;6019
1559;6021
1561;6024
1562;6026
1564;6029
1564;6031
1564;6033
1564;6036
1566;6038
1568;6041
1569;6043
1568;6045
1569;6048
1568;6050
1567;6053
1565;6055
1564;6059
1563;6061
1563;6063
1564;6066
1564;6068
1563;6071
1562;6073
1562;6075
1561;6078
1561;6080
1560;6083
1560;6085
1560;6087
1559;6090
1559;6092
1558;6095
1558;6097
1558;6099
1557;6103
1557;6105
1558;6108
1558;6110
1559;6112
1558;6115
1558;6117
1558;6120
1557;6122
1556;6125
1557;6127
1558;6129
1559;6132
1560;6134
1561;6137
1560;6139
1558;6141
1557;6145
1557;6147
1557;6150
1557;6152
1556;6154
1556;6157
1556;6159
1557;6162
1557;6164
1557;6166
1557;6169
1557;6171
1557;6174
1557;6176
1557;6178
1557;6181
1557;6183
1557;6187
1557;6189
1556;6192
1556;6194
1556;6196
1556;6199
1555;6201
1555;6204
1555;6206
1554;6208
1554;6211
1554;6213
1554;6216
1555;6218
1555;6220
1554;6223
1553;6225
1552;6228
1552;6231
1552;6233
1552;6236
1551;6238
1551;6241
1550;6243
1550;6245
1549;6248
1549;6250
1549;6253
1551;6255
1551;6258
1550;6260
1549;6262
1548;6265
1549;6267
1548;6270
1547;6273
1546;6275
1545;6278
1544;6280
1543;6283
1543;6285
1542;6287
1542;6290
1541;6292
1540;6295
1539;6297
1539;6299
1538;6302
1537;6304
1536;6307
1535;6309
1534;6311
1533;6315
1532;6317
1531;6320
1529;6322
1529;6325
1528;6327
1527;6329
1527;6332
1527;6334
1527;6337
1527;6339
1527;6341
1527;6344
1527;6346
1527;6349
1527;6351
1527;6353
1532;6356
1535;6359
1530;6362
1525;6364
1519;6366
1514;6369
1511;6371
1509;6374
1506;6376
1505;6378
1503;6381
1501;6383
1500;6386
1499;6388
1498;6391
1497;6393
1496;6395
1496;6398
1495;6401
1495;6404
1494;6406
1494;6408
1493;6411
1493;6413
1492;6416
1492;6418
1491;6420
1491;6423
1490;6425
1490;6428
1489;6430
1489;6432
1488;6435
1487;6437
1487;6440
1486;6443
1485;6445
1484;6448
1484;6450
1483;6453
1482;6455
1481;6457
1480;6460
1480;6462
1479;6465
1479;6467
1479;6469
1479;6472
1478;6474
1478;6477
1478;6479
1477;6481
1477;6484
1478;6487
1477;6490
1476;6492
1474;6495
1472;6497
1471;6499
1469;6502
1469;6504
1467;6507
1467;6509
1466;6511
1466;6514
1465;6516
1465;6519
1465;6521
1465;6523
1465;6526
1464;6529
1464;6532
1464;6534
1464;6536
1464;6539
1464;6541
1464;6544
1464;6546
1463;6548
1463;6551
1462;6553
1462;6556
1462;6558
1462;6560
1462;6563
1462;6565
1462;6568
1462;6571
1462;6573
1462;6576
1461;6578
1461;6581
1461;6583
1460;6585
1460;6588
1461;6590
1461;6593
1460;6595
1460;6598
1460;6600
1460;6602
1460;6605
1460;6607
1460;6610
1462;6612
1463;6615
1463;6618
1463;6620
1463;6623
1462;6625
1462;6627
1462;6630
1461;6632
1462;6635
1462;6637
1462;6639
1463;6642
1463;6644
1463;6647
1463;6649
1463;6651
1463;6654
1464;6657
1463;6660
1463;6662
1462;6664
1462;6667
1462;6669
1463;6672
1464;6674
1466;6676
1466;6679
1464;6681
1462;6684
1461;6686
1459;6688
1459;6691
1458;6693
1458;6696
1457;6699
1457;6702
1457;6704
1457;6706
1457;6709
1457;6711
1457;6714
1457;6716
1458;6718
1458;6721
1458;6723
1459;6726
1459;6728
1459;6730
1460;6733
1460;6735
1461;6738
1461;6740
1462;6743
1463;6746
1464;6748
1464;6751
1464;6753
1465;6755
1466;6758
1466;6760
1465;6763
1465;6765
1464;6767
1464;6770
1463;6772
1464;6775
1464;6777
1464;6779
1463;6782
1464;6785
1464;6788
1464;6790
1464;6793
1464;6795
1464;6797
1465;6800
1465;6802
1465;6805
1466;6807
1466;6809
1466;6812
1467;6814
1467;6817
1467;6819
1466;6821
1466;6824
1466;6827
1466;6830
1466;6832
1466;6834
1467;6837
1467;6839
1467;6842
1467;6844
1467;6846
1467;6849
1467;6851
1467;6854
1467;6856
1467;6858
1467;6861
1467;6863
1467;6866
1468;6868
1467;6871
1467;6874
1467;6876
1467;6879
1467;6881
1467;6884
1468;6886
1468;6888
1469;6891
1471;6893
1472;6896
1471;6898
1471;6900
1469;6903
1469;6905
1469;6908
1468;6910
1468;6913
1468;6916
1469;6918
1469;6921
1469;6923
1470;6925
1470;6928
1471;6930
1471;6933
1472;6935
1472;6937
1473;6940
1474;6942
1474;6945
1475;6947
1475;6949
1475;6952
1475;6955
1475;6958
1475;6960
1475;6963
1476;6965
1476;6967
1476;6970
1476;6972
1476;6975
1477;6977
1478;6979
1478;6982
1479;6984
1479;6987
1479;6989
1480;6991
1481;6994
1482;6996
1482;7000
1481;7002
1481;7004
1480;7007
1480;7009
1481;7012
1482;7014
1481;7016
1480;7019
1479;7021
1478;7024
1478;7026
1478;7029
1478;7031
1478;7033
1478;7036
1478;7038
1478;7042
1478;7044
1478;7046
1479;7049
1480;7051
1480;7054
1479;7056
1478;7058
1478;7061
1478;7063
1477;7066
1477;7068
1477;7070
1477;7073
1476;7075
1476;7078
1475;7080
1475;7083
1474;7086
1474;7088
1474;7091
1474;7093
1473;7095
1472;7098
1472;7100
1472;7103
1472;7105
1471;7108
1472;7110
1471;7112
1471;7115
1471;7117
1471;7120
1471;7122
1471;7124
1471;7128
1472;7130
1472;7133
1473;7135
1473;7137
1473;7140
1474;7142
1474;7145
1474;7147
1474;7149
1474;7152
1475;7154
1475;7157
1475;7159
1475;7161
1475;7164
1475;7166
1475;7170
1475;7172
1475;7175
1475;7177
1475;7179
1475;7182
1475;7184
1475;7187
1476;7189
1477;7191
1477;7194
1477;7196
1478;7199
1480;7201
1483;7203
1484;7206
1485;7208
1484;7212
1485;7214
1484;7216
1482;7219
1482;7221
1482;7224
1481;7226
1481;7228
1480;7231
1481;7233
1481;7236
1480;7238
1481;7241
1481;7243
1481;7245
1482;7248
1482;7250
1482;7254
1482;7256
1481;7258
1481;7261
1481;7263
1481;7266
1481;7268
1481;7270
1481;7273
1482;7275
1482;7278
1482;7280
1482;7282
1482;7285
1482;7287
1482;7290
1483;7292
1483;7294
1483;7298
1483;7300
1483;7303
1483;7305
1482;7307
1482;7310
1484;7312
1486;7315
1486;7317
1485;7320
1484;7322
1482;7324
1481;7327
1481;7329
1481;7332
1481;7334
1480;7336
1480;7340
1479;7342
1479;7345
1479;7347
1479;7349
1479;7352
1479;7354
1479;7357
1479;7359
1479;7361
1479;7364
1479;7366
1479;7369
1479;7371
1479;7373
1479;7376
1480;7378
1481;7382
1481;7384
1481;7387
1481;7389
1482;7391
1482;7394
1483;7396
1485;7399
1487;7401
1487;7403
1487;7406
1485;7408
1484;7411
1484;7413
1484;7415
1484;7418
1484;7420
1486;7424
1487;7426
1488;7428
1489;7431
1488;7433
1488;7436
1488;7438
1488;7440
1489;7443
1489;7445
1489;7448
1489;7450
1489;7452
1490;7455
1491;7457
1490;7460
1490;7462
1490;7465
1490;7468
1490;7470
1490;7473
1490;7475
1491;7478
1492;7480
1492;7482
1491;7485
1491;7487
1491;7490
1490;7492
1490;7494
1489;7497
1489;7499
1489;7502
1489;7504
1489;7506
1490;7510
1491;7512
1490;7515
1489;7517
1488;7519
1487;7522
1487;7524
1487;7527
1486;7529
1486;7532
1486;7534
1487;7536
1487;7539
1487;7541
1487;7544
1487;7546
1488;7548
1488;7552
1488;7554
1489;7557
1489;7559
1489;7561
1490;7564
1490;7566
1490;7569
1491;7571
1493;7573
1496;7576
1497;7578
1498;7581
1497;7583
1496;7585
1495;7588
1495;7590
1495;7593
1495;7596
1495;7599
1495;7601
1495;7603
1495;7606
1495;7608
1496;7611
1496;7613
1496;7615
1496;7618
1497;7620
1497;7623
1497;7625
1497;7627
1496;7630
1496;7632
1496;7635
1496;7638
1496;7640
1495;7643
1495;7645
1495;7648
1495;7650
1494;7652
1494;7655
1493;7657
1492;7660
1491;7662
1491;7665
1491;7667
1491;7669
1491;7672
1491;7674
1492;7677
1493;7680
1492;7682
1491;7685
1491;7687
1490;7690
1489;7692
1488;7694
1487;7697
1486;7699
1485;7702
1485;7704
1485;7706
1484;7709
1484;7711
1484;7714
1484;7716
1484;7718
1484;7721
1483;7724
1483;7727
1482;7729
1481;7731
1480;7734
1479;7736
1478;7739
1478;7741
1477;7744
1476;7746
