emg;time
1493;2
1500;4
1504;7
1504;9
1501;11
1505;13
1505;16
1503;18
1503;20
1499;23
1497;25
1499;27
1500;30
1497;32
1495;34
1493;36
1488;39
1486;41
1490;44
1492;47
1491;49
1494;51
1496;54
1494;56
1492;58
1490;61
1485;63
1482;65
1481;67
1482;70
1481;72
1483;74
1483;77
1483;79
1488;81
1495;84
1497;87
1502;89
1505;91
1506;94
1506;96
1507;98
1502;101
1499;103
1497;105
1492;108
1487;110
1484;112
1486;115
1491;117
1493;120
1496;122
1499;124
1496;128
1492;130
1490;132
1489;135
1494;137
1494;139
1492;142
1493;144
1493;146
1492;149
1490;151
1486;153
1485;156
1487;158
1488;161
1489;163
1489;165
1487;168
1488;171
1492;173
1495;176
1503;178
1505;180
1504;183
1502;185
1505;187
1508;190
1506;192
1506;194
1501;197
1498;199
1499;202
1504;204
1498;206
1493;209
1492;211
1489;214
1489;217
1490;219
1490;221
1488;224
1485;226
1481;228
1479;231
1478;233
1480;236
1483;238
1491;240
1498;243
1503;245
1501;247
1501;250
1508;252
1508;254
1504;258
1502;260
1502;262
1503;265
1501;267
1502;269
1504;272
1507;274
1506;277
1508;279
1515;281
1516;284
1508;286
1504;288
1503;291
1500;293
1497;295
1496;299
1498;301
1507;303
1510;306
1509;308
1510;310
1507;313
1504;315
1503;318
1500;320
1500;322
1500;325
1499;327
1498;329
1497;332
1497;334
1496;336
1499;339
1503;342
1513;344
1517;347
1512;349
1509;352
1512;354
1508;356
1503;359
1500;361
1501;363
1504;366
1504;368
1502;370
1503;373
1504;375
1502;377
1502;380
1509;382
1510;385
1508;388
1503;390
1498;393
1495;395
1497;397
1497;400
1492;402
1488;404
1484;407
1482;409
1488;411
1495;414
1497;416
1495;418
1496;421
1495;423
1491;425
1488;429
1490;431
1494;434
1500;436
1502;438
1504;441
1510;443
1511;445
1507;448
1508;450
1514;452
1516;455
1526;457
1535;459
1524;462
1513;464
1505;467
1509;470
1508;472
1506;475
1503;477
1502;479
1496;482
1491;484
1485;486
1482;489
1477;491
1474;493
1474;496
1473;498
1475;500
1478;503
1482;505
1483;508
1484;510
1484;513
1487;516
1495;518
1505;520
1507;523
1503;525
1499;527
1505;530
1511;532
1504;534
1501;537
1512;539
1519;542
1520;544
1521;546
1519;549
1521;551
1519;553
1513;557
1505;559
1496;561
1491;564
1487;566
1495;568
1498;571
1495;573
1491;575
1484;578
1480;580
1479;583
1482;585
1482;587
1480;590
1478;592
1476;594
1474;598
1477;600
1479;602
1480;605
1482;607
1487;609
1501;612
1512;614
1515;617
1512;619
1509;621
1513;624
1514;626
1511;628
1510;631
1507;633
1507;635
1505;638
1509;641
1511;643
1506;646
1498;648
1490;651
1482;653
1475;655
1471;658
1470;660
1470;662
1474;665
1477;667
1476;669
1477;672
1480;674
1481;676
1483;679
1484;681
1486;684
1494;687
1499;689
1497;692
1496;694
1496;696
1506;699
1510;701
1510;703
1507;706
1501;708
1497;710
1495;713
1493;715
1494;717
1501;720
1501;722
1500;724
1499;728
1498;730
1498;733
1498;735
1492;737
1488;740
1482;742
1474;744
1470;747
1470;749
1480;751
1483;754
1480;756
1478;758
1477;761
1481;763
1488;766
1491;769
1488;771
1487;774
1491;776
1498;778
1496;781
1492;783
1486;785
1490;788
1494;790
1494;792
1490;795
1489;797
1498;799
1499;802
1493;804
1489;807
1495;809
1504;812
1501;815
1494;817
1492;819
1489;822
1483;824
1478;826
1475;829
1470;831
1475;833
1483;836
1486;838
1483;841
1482;843
1480;845
1482;848
1480;850
1478;852
1477;856
1483;858
1499;860
1503;863
1501;865
1502;867
1500;870
1497;872
1499;874
1500;877
1499;879
1499;882
1501;884
1499;886
1499;889
1511;891
1516;893
1514;897
1514;899
1511;901
1503;904
1499;906
1496;908
1489;911
1487;913
1485;916
1483;918
1480;920
1481;923
1482;925
1485;927
1493;930
1501;932
1503;934
1502;937
1497;940
1495;942
1494;945
1493;947
1500;949
1502;952
1499;954
1504;957
1505;959
1508;961
1515;964
1514;966
1510;968
1510;971
1510;973
1509;975
1507;978
1510;980
1505;983
1503;986
1505;988
1499;990
1491;993
1489;995
1489;998
1490;1000
1488;1002
1485;1005
1481;1007
1483;1010
1488;1012
1488;1014
1487;1017
1488;1019
1487;1022
1491;1025
1503;1027
1515;1030
1519;1032
1518;1035
1518;1037
1516;1039
1514;1042
1512;1044
1512;1047
1511;1049
1506;1051
1504;1054
1503;1056
1502;1059
1501;1061
1493;1063
1489;1067
1491;1069
1489;1072
1484;1074
1480;1076
1481;1079
1483;1081
1483;1084
1484;1086
1487;1088
1490;1091
1497;1093
1497;1096
1492;1098
1488;1101
1486;1103
1488;1105
1492;1108
1494;1111
1495;1114
1494;1116
1496;1118
1496;1121
1508;1123
1521;1126
1524;1128
1518;1130
1511;1133
1506;1135
1500;1138
1491;1140
1484;1142
1479;1145
1480;1147
1491;1150
1487;1153
1480;1155
1474;1158
1472;1160
1473;1163
1472;1165
1474;1167
1480;1170
1486;1172
1489;1175
1490;1177
1493;1179
1489;1182
1486;1184
1483;1187
1478;1189
1481;1192
1496;1195
1499;1197
1496;1200
1501;1202
1512;1205
1511;1207
1504;1209
1494;1212
1491;1214
1499;1217
1498;1219
1497;1221
1500;1224
1502;1226
1501;1229
1498;1231
1493;1233
1489;1236
1486;1239
1483;1242
1479;1244
1481;1246
1491;1249
1500;1251
1497;1254
1492;1256
1490;1258
1491;1261
1492;1263
1491;1266
1490;1268
1494;1270
1496;1273
1497;1275
1497;1278
1503;1281
1512;1284
1513;1286
1514;1288
1516;1291
1512;1293
1506;1296
1504;1298
1501;1300
1498;1303
1496;1305
1493;1308
1487;1310
1483;1312
1481;1315
1479;1317
1478;1320
1480;1323
1483;1325
1482;1328
1481;1330
1483;1333
1483;1335
1482;1337
1484;1340
1484;1342
1485;1345
1486;1347
1491;1349
1501;1352
1510;1354
1510;1357
1506;1359
1508;1361
1512;1364
1510;1367
1506;1370
1500;1372
1496;1374
1499;1377
1509;1379
1512;1382
1503;1384
1495;1387
1492;1389
1489;1391
1487;1394
1484;1396
1484;1399
1483;1401
1487;1403
1490;1406
1486;1409
1480;1412
1477;1414
1474;1416
1472;1419
1473;1421
1476;1424
1478;1426
1485;1428
1496;1431
1500;1433
1514;1436
1519;1438
1516;1440
1511;1443
1503;1445
1498;1448
1495;1451
1497;1453
1495;1456
1497;1458
1502;1461
1501;1463
1502;1465
1502;1468
1498;1470
1501;1473
1495;1475
1492;1478
1486;1480
1480;1482
1480;1485
1484;1487
1488;1490
1489;1492
1483;1495
1477;1498
1477;1500
1481;1503
1487;1505
1487;1507
1485;1510
1482;1512
1479;1515
1479;1517
1492;1519
1500;1522
1496;1524
1496;1527
1498;1529
1496;1531
1500;1534
1507;1537
1502;1540
1496;1542
1499;1544
1502;1547
1498;1549
1492;1552
1495;1554
1500;1556
1499;1559
1497;1561
1491;1564
1483;1566
1474;1569
1469;1571
1465;1573
1463;1576
1467;1579
1471;1582
1473;1584
1472;1586
1475;1589
1478;1591
1481;1594
1484;1596
1487;1598
1499;1601
1504;1603
1510;1606
1512;1608
1508;1610
1501;1613
1500;1615
1506;1618
1511;1620
1507;1623
1504;1626
1504;1628
1503;1631
1500;1633
1502;1635
1498;1638
1496;1640
1494;1643
1488;1645
1483;1647
1479;1650
1476;1652
1479;1655
1482;1657
1483;1659
1485;1662
1483;1665
1483;1668
1483;1670
1492;1673
1499;1675
1502;1677
1513;1680
1518;1682
1514;1685
1509;1687
1506;1689
1500;1692
1496;1694
1495;1697
1501;1699
1509;1701
1508;1704
1508;1707
1509;1710
1511;1712
1506;1714
1504;1717
1502;1719
1494;1722
1489;1724
1490;1726
1488;1729
1486;1731
1483;1734
1478;1736
1476;1738
1476;1741
1481;1743
1483;1746
1483;1748
1487;1751
1498;1754
1507;1756
1509;1759
1504;1761
1505;1764
1512;1766
1511;1768
1511;1771
1511;1773
1508;1776
1504;1778
1502;1780
1505;1783
1505;1785
1508;1788
1504;1790
1497;1793
1490;1796
1485;1798
1485;1801
1487;1803
1488;1805
1488;1808
1486;1810
1483;1813
1484;1815
1485;1817
1484;1820
1484;1822
1485;1825
1487;1827
1489;1829
1489;1832
1493;1835
1496;1838
1500;1840
1511;1842
1514;1845
1510;1847
1502;1850
1500;1852
1508;1855
1505;1857
1499;1859
1498;1862
1496;1864
1493;1867
1492;1869
1486;1871
1482;1874
1486;1876
1496;1880
1500;1882
1494;1884
1492;1887
1490;1889
1484;1892
1480;1894
1484;1896
1489;1899
1492;1901
1493;1904
1489;1906
1484;1908
1482;1911
1481;1913
1481;1916
1477;1918
1476;1921
1481;1924
1493;1926
1503;1929
1505;1931
1505;1933
1505;1936
1503;1938
1501;1941
1494;1943
1494;1946
1496;1948
1494;1950
1494;1953
1502;1955
1505;1958
1499;1960
1494;1963
1492;1966
1493;1968
1495;1971
1493;1973
1490;1975
1485;1978
1482;1980
1481;1983
1479;1985
1478;1987
1482;1990
1487;1992
1488;1995
1486;1997
1488;1999
1487;2002
1488;2004
1494;2008
1503;2010
1509;2012
1512;2015
1514;2017
1508;2020
1502;2022
1503;2024
1504;2027
1507;2029
1511;2032
1510;2034
1509;2037
1508;2039
1511;2041
1506;2044
1502;2046
1511;2050
1515;2052
1508;2054
1495;2057
1486;2059
1485;2062
1481;2064
1478;2066
1476;2069
1478;2071
1479;2074
1485;2076
1489;2078
1494;2081
1500;2083
1505;2086
1505;2088
1510;2091
1507;2094
1499;2096
1497;2099
1509;2101
1512;2103
1514;2106
1509;2108
1500;2111
1504;2113
1514;2116
1513;2118
1505;2120
1498;2123
1496;2125
1495;2128
1495;2130
1494;2132
1490;2136
1486;2138
1481;2141
1478;2143
1478;2145
1481;2148
1482;2150
1481;2153
1481;2155
1480;2157
1485;2160
1492;2162
1496;2165
1496;2167
1496;2169
1503;2172
1514;2174
1508;2178
1504;2180
1507;2182
1505;2185
1499;2187
1501;2190
1506;2192
1503;2195
1501;2197
1504;2199
1500;2202
1491;2204
1485;2207
1479;2209
1474;2211
1473;2214
1478;2216
1483;2220
1494;2222
1497;2224
1491;2227
1485;2229
1483;2232
1482;2234
1487;2236
1495;2239
1501;2241
1501;2244
1502;2246
1505;2248
1515;2251
1518;2253
1512;2256
1509;2258
1504;2260
1511;2264
1514;2266
1511;2269
1512;2271
1507;2274
1501;2276
1499;2278
1504;2281
1504;2283
1499;2286
1497;2288
1494;2290
1491;2293
1491;2295
1494;2298
1502;2300
1505;2302
1502;2306
1497;2308
1492;2311
1486;2313
1484;2315
1484;2318
1485;2320
1488;2323
1493;2325
1502;2327
1518;2330
1522;2332
1515;2335
1508;2337
1505;2339
1508;2342
1511;2344
1507;2348
1499;2350
1493;2353
1495;2355
1503;2357
1505;2360
1503;2362
1504;2365
1506;2367
1501;2369
1494;2372
1491;2374
1486;2377
1481;2379
1484;2381
1488;2384
1492;2386
1491;2390
1492;2392
1491;2394
1491;2397
1497;2399
1499;2402
1497;2404
1493;2406
1489;2409
1489;2411
1491;2414
1495;2416
1493;2418
1497;2421
1497;2423
1494;2426
1498;2428
1516;2432
1518;2434
1517;2436
1510;2439
1496;2441
1489;2444
1490;2446
1497;2448
1499;2451
1496;2453
1492;2456
1491;2458
1487;2460
1485;2463
1484;2465
1485;2468
1486;2470
1486;2472
1494;2476
1500;2478
1493;2481
1489;2483
1491;2485
1495;2488
1495;2490
1491;2493
1489;2495
1494;2497
1492;2500
1488;2502
1485;2505
1490;2507
1492;2509
1491;2512
1490;2514
1489;2518
1493;2520
1508;2523
1514;2525
1510;2527
1497;2530
1490;2532
1490;2535
1490;2537
1489;2539
1486;2542
1482;2544
1479;2547
1477;2549
1479;2551
1486;2554
1493;2556
1495;2560
1498;2562
1497;2564
1495;2567
1494;2569
1494;2572
1491;2574
1489;2576
1495;2579
1502;2581
1499;2584
1497;2586
1495;2589
1492;2591
1492;2593
1494;2596
1495;2598
1497;2601
1498;2604
1497;2606
1496;2609
1505;2611
1508;2614
1506;2616
1504;2618
1509;2621
1519;2623
1512;2626
1502;2628
1497;2630
1490;2633
1486;2635
1483;2638
1482;2640
1484;2642
1498;2646
1508;2648
1505;2651
1497;2653
1492;2655
1486;2658
1486;2660
1491;2663
1491;2665
1489;2667
1488;2670
1491;2672
1496;2675
1498;2677
1499;2679
1496;2682
1495;2684
1496;2688
1506;2690
1514;2693
1512;2695
1505;2697
1504;2700
1503;2702
1498;2705
1496;2707
1506;2709
1515;2712
1514;2714
1513;2717
1514;2719
1514;2721
1513;2724
1507;2726
1503;2729
1503;2732
1502;2734
1498;2737
1501;2739
1507;2742
1506;2744
1504;2746
1504;2749
1503;2751
1503;2754
1500;2756
1499;2758
1500;2761
1499;2763
1502;2766
1507;2768
1506;2771
1505;2774
1504;2776
1504;2779
1511;2781
1517;2784
1520;2786
1517;2788
1516;2791
1507;2793
1503;2796
1504;2798
1509;2800
1518;2803
1519;2805
1516;2808
1526;2810
1528;2812
1518;2816
1508;2818
1497;2821
1489;2823
1480;2825
1481;2828
1482;2830
1484;2833
1486;2835
1488;2837
1492;2840
1500;2842
1507;2845
1507;2847
1504;2849
1502;2852
1503;2854
1510;2857
1521;2860
1521;2863
1519;2865
1519;2867
1513;2870
1511;2872
1511;2875
1506;2877
1500;2879
1502;2882
1503;2884
1502;2887
1502;2889
1500;2891
1497;2894
1493;2896
1495;2899
1498;2902
1497;2904
1502;2907
1506;2909
1505;2912
1503;2914
1505;2916
1504;2919
1507;2921
1509;2924
1506;2926
1503;2928
1504;2931
1506;2933
1506;2936
1508;2938
1507;2941
1498;2944
1490;2946
1487;2949
1492;2951
1498;2954
1496;2956
1489;2958
1491;2961
1494;2963
1493;2966
1491;2968
1488;2970
1488;2973
1487;2975
1485;2978
1495;2980
1502;2982
1496;2985
1492;2988
1492;2991
1493;2993
1501;2995
1505;2998
1503;3000
1498;3003
1492;3005
1491;3007
1498;3010
1500;3012
1500;3015
1501;3017
1503;3019
1515;3022
1518;3024
1511;3027
1505;3030
1507;3033
1508;3035
1506;3037
1504;3040
1501;3042
1496;3045
1497;3047
1505;3049
1505;3052
1503;3054
1502;3057
1497;3059
1495;3061
1495;3064
1493;3066
1491;3069
1494;3072
1499;3074
1501;3077
1505;3079
1505;3082
1506;3084
1505;3086
1500;3089
1496;3091
1502;3094
1511;3096
1512;3099
1513;3101
1522;3103
1533;3106
1532;3108
1527;3111
1520;3113
1512;3116
1509;3119
1507;3121
1505;3124
1498;3126
1491;3128
1487;3131
1483;3133
1484;3136
1484;3138
1488;3140
1495;3143
1500;3145
1507;3148
1504;3150
1497;3152
1496;3155
1496;3158
1493;3161
1491;3163
1492;3166
1498;3168
1504;3170
1514;3173
1513;3175
1510;3178
1514;3180
1524;3182
1524;3185
1514;3187
1503;3190
1501;3192
1506;3194
1510;3197
1509;3200
1504;3203
1504;3205
1500;3207
1496;3210
1493;3212
1487;3215
1481;3217
1478;3219
1475;3222
1473;3224
1475;3227
1483;3229
1489;3232
1491;3234
1486;3236
1483;3239
1488;3241
1495;3245
1492;3247
1487;3249
1482;3252
1487;3254
1491;3257
1498;3259
1501;3261
1496;3264
1490;3266
1491;3269
1492;3271
1492;3273
1498;3276
1494;3278
1486;3281
1479;3283
1474;3286
1473;3289
1477;3291
1482;3294
1487;3296
1490;3298
1492;3301
1489;3303
1481;3306
1478;3308
1479;3310
1475;3313
1471;3315
1472;3318
1473;3320
1476;3322
1478;3325
1484;3328
1491;3331
1498;3333
1499;3336
1502;3338
1515;3340
1516;3343
1503;3345
1498;3348
1497;3350
1492;3352
1492;3355
1495;3357
1489;3360
1482;3362
1479;3364
1482;3367
1486;3369
1489;3373
1493;3375
1494;3377
1490;3380
1483;3382
1477;3385
1474;3387
1472;3389
1476;3392
1479;3394
1482;3397
1487;3399
1490;3401
1494;3404
1488;3406
1489;3409
1494;3411
1492;3414
1487;3417
1481;3419
1483;3422
1485;3424
1489;3427
1497;3429
1499;3431
1494;3434
1491;3436
1491;3439
1494;3441
1491;3443
1484;3446
1480;3448
1485;3451
1487;3453
1481;3456
1478;3459
1488;3461
1486;3464
1482;3466
1477;3468
1475;3471
1477;3473
1488;3476
1494;3478
1491;3480
1484;3483
1481;3485
1485;3488
1487;3490
1485;3492
1485;3495
1495;3497
1504;3501
1503;3503
1505;3506
1505;3508
1495;3510
1485;3513
1484;3515
1489;3518
1493;3520
1489;3522
1488;3525
1486;3527
1484;3530
1479;3532
1474;3534
1471;3537
1471;3539
1477;3543
1491;3545
1494;3547
1489;3550
1487;3552
1485;3555
1482;3557
1478;3559
1480;3562
1491;3564
1499;3567
1508;3569
1514;3571
1513;3574
1513;3576
1508;3579
1500;3581
1498;3584
1490;3587
1486;3589
1480;3592
1477;3594
1476;3597
1479;3599
1485;3601
1491;3604
1491;3606
1498;3609
1494;3611
1482;3613
1472;3616
1468;3618
1466;3621
1475;3623
1482;3625
1481;3629
1479;3631
1479;3634
1477;3636
1477;3638
1482;3641
1485;3643
1488;3646
1499;3648
1505;3650
1509;3653
1521;3655
1520;3658
1509;3660
1500;3662
1495;3665
1494;3667
1498;3671
1505;3673
1498;3675
1489;3678
1490;3680
1489;3683
1485;3685
1481;3688
1475;3690
1472;3692
1473;3695
1474;3697
1472;3700
1471;3702
1469;3704
1467;3707
1469;3709
1472;3713
1481;3715
1487;3717
1491;3720
1495;3722
1500;3725
1507;3727
1513;3729
1510;3732
1509;3734
1512;3737
1508;3739
1500;3741
1498;3744
1501;3746
1502;3749
1499;3751
1499;3753
1492;3757
1485;3759
1482;3762
1484;3764
1482;3767
1480;3769
1482;3771
1482;3774
1488;3776
1491;3779
1485;3781
1481;3783
1481;3786
1490;3788
1496;3791
1492;3793
1485;3795
1481;3799
1481;3801
1490;3804
1503;3806
1507;3808
1505;3811
1498;3813
1502;3816
1505;3818
1504;3820
1504;3823
1511;3825
1512;3828
1509;3830
1505;3832
1500;3835
1501;3837
1502;3841
1500;3843
1495;3846
1489;3848
1488;3850
1489;3853
1489;3855
1485;3858
1479;3860
1478;3862
1476;3865
1476;3867
1477;3870
1483;3872
1485;3874
1492;3877
1499;3879
1505;3883
1504;3885
1499;3887
1493;3890
1491;3892
1493;3895
1497;3897
1507;3899
1518;3902
1520;3904
1511;3907
1510;3909
1515;3911
1520;3914
1519;3916
1512;3919
1502;3921
1498;3924
1494;3927
1495;3929
1496;3932
1499;3934
1500;3937
1497;3939
1491;3941
1485;3944
1480;3946
1481;3949
1491;3951
1497;3953
1497;3956
1496;3958
1492;3961
1487;3963
1492;3965
1507;3969
1511;3971
1506;3974
1503;3976
1507;3978
1509;3981
1507;3983
1502;3986
1499;3988
1501;3990
1505;3993
1502;3995
1501;3998
1506;4000
1511;4003
1519;4005
1523;4007
1522;4011
1518;4013
1509;4016
1502;4018
1500;4020
1498;4023
1496;4025
1496;4028
1494;4030
1491;4032
1491;4035
1492;4037
1493;4040
1492;4042
1489;4044
1489;4047
1490;4049
1489;4052
1488;4055
1494;4057
1501;4060
1500;4062
1511;4065
1520;4067
1520;4069
1523;4072
1516;4074
1507;4077
1502;4079
1501;4081
1502;4084
1501;4086
1499;4089
1497;4091
1496;4094
1500;4097
1502;4099
1507;4102
1519;4104
1521;4107
1519;4109
1518;4111
1514;4114
1508;4116
1506;4119
1503;4121
1498;4123
1493;4126
1492;4128
1491;4131
1490;4133
1490;4135
1489;4139
1499;4141
1519;4144
1524;4146
1524;4148
1518;4151
1507;4153
1501;4156
1502;4158
1499;4160
1496;4163
1496;4165
1497;4168
1500;4170
1505;4173
1508;4175
1503;4177
1502;4180
1503;4183
1500;4186
1500;4188
1501;4190
1497;4193
1495;4195
1492;4198
1488;4200
1488;4202
1488;4205
1491;4207
1500;4210
1503;4212
1502;4214
1509;4217
1519;4219
1524;4222
1520;4225
1510;4227
1503;4230
1495;4232
1490;4235
1489;4237
1498;4239
1510;4242
1513;4244
1509;4247
1504;4249
1502;4252
1500;4254
1499;4256
1502;4259
1503;4261
1502;4264
1501;4267
1503;4269
1501;4272
1498;4274
1500;4277
1509;4279
1515;4281
1516;4284
1511;4286
1513;4289
1513;4291
1506;4293
1498;4296
1499;4298
1503;4301
1504;4303
1506;4305
1498;4308
1489;4311
1488;4314
1492;4316
1497;4318
1500;4321
1503;4323
1504;4326
1509;4328
1511;4331
1504;4333
1496;4335
1494;4338
1494;4340
1493;4343
1490;4345
1489;4347
1489;4350
1491;4353
1497;4356
1493;4358
1491;4360
1490;4363
1496;4365
1501;4368
1499;4370
1496;4372
1501;4375
1503;4377
1499;4380
1497;4382
1496;4384
1490;4387
1488;4389
1491;4392
1493;4395
1491;4398
1493;4400
1500;4402
1508;4405
1502;4407
1495;4410
1494;4412
1495;4414
1499;4417
1499;4419
1500;4422
1503;4424
1504;4426
1515;4429
1521;4431
1519;4434
1516;4436
1507;4439
1502;4442
1498;4444
1495;4447
1494;4449
1495;4451
1497;4454
1499;4456
1500;4459
1507;4461
1511;4463
1510;4466
1508;4468
1506;4471
1507;4473
1508;4476
1512;4478
1516;4481
1515;4484
1509;4486
1506;4489
1502;4491
1500;4493
1503;4496
1513;4498
1521;4501
1522;4503
1522;4505
1529;4508
1536;4510
1533;4513
1529;4515
1522;4517
1516;4520
1514;4523
1519;4526
1520;4528
1517;4530
1513;4533
1506;4535
1500;4538
1499;4540
1502;4543
1503;4545
1506;4547
1506;4550
1504;4552
1501;4555
1500;4557
1501;4559
1505;4562
1506;4564
1510;4568
1513;4570
1510;4572
1507;4575
1510;4577
1514;4580
1521;4582
1521;4584
1516;4587
1517;4589
1512;4592
1511;4594
1513;4596
1519;4599
1516;4601
1513;4604
1513;4606
1512;4609
1509;4612
1506;4614
1503;4617
1502;4619
1500;4622
1497;4624
1491;4626
1490;4629
1494;4631
1499;4634
1501;4636
1499;4638
1499;4641
1500;4643
1500;4646
1500;4648
1502;4651
1505;4654
1508;4656
1507;4659
1505;4661
1499;4663
1501;4666
1504;4668
1508;4671
1520;4673
1519;4675
1514;4678
1520;4680
1524;4683
1520;4685
1512;4688
1506;4690
1504;4692
1502;4696
1508;4698
1509;4701
1502;4703
1495;4705
1492;4708
1492;4710
1493;4713
1496;4715
1496;4717
1495;4720
1497;4722
1498;4725
1499;4727
1503;4729
1503;4732
1501;4734
1501;4738
1505;4740
1512;4742
1514;4745
1513;4747
1519;4750
1526;4752
1527;4754
1523;4757
1518;4759
1518;4762
1523;4764
1532;4767
1531;4769
1526;4771
1525;4774
1521;4776
1523;4780
1528;4782
1531;4784
1524;4787
1515;4789
1512;4792
1513;4794
1509;4796
1508;4799
1509;4801
1511;4804
1512;4806
1507;4808
1507;4811
1509;4813
1510;4816
1511;4818
1518;4820
1523;4824
1521;4826
1517;4829
1514;4831
1514;4834
1514;4836
1516;4838
1517;4841
1518;4843
1520;4846
1523;4848
1519;4850
1518;4853
1521;4855
1527;4858
1529;4860
1528;4862
1529;4866
1528;4868
1531;4871
1525;4873
1515;4875
1507;4878
1503;4880
1503;4883
1501;4885
1499;4887
1497;4890
1494;4892
1494;4895
1496;4897
1500;4899
1500;4902
1503;4904
1511;4908
1522;4910
1522;4913
1514;4915
1517;4917
1516;4920
1507;4922
1502;4925
1503;4927
1503;4929
1504;4932
1513;4934
1512;4937
1506;4939
1508;4941
1511;4944
1515;4946
1519;4950
1521;4952
1514;4954
1508;4957
1505;4959
1499;4962
1495;4964
1491;4966
1496;4969
1501;4971
1500;4974
1500;4976
1497;4978
1492;4981
1495;4983
1499;4986
1503;4988
1505;4992
1499;4994
1495;4996
1494;4999
1498;5001
1505;5004
1504;5006
1500;5008
1499;5011
1502;5013
1505;5016
1501;5018
1497;5020
1497;5023
1496;5025
1494;5028
1497;5030
1497;5032
1493;5036
1491;5038
1493;5041
1499;5043
1500;5045
1496;5048
1492;5050
1490;5053
1489;5055
1488;5058
1484;5060
1482;5062
1478;5065
1476;5067
1476;5070
1475;5072
1473;5074
1475;5078
1485;5080
1498;5083
1503;5085
1500;5087
1496;5090
1489;5092
1488;5095
1491;5097
1493;5099
1491;5102
1485;5104
1483;5107
1490;5109
1496;5111
1496;5114
1488;5116
1481;5120
1479;5122
1485;5125
1491;5127
1491;5129
1485;5132
1478;5134
1474;5137
1475;5139
1479;5141
1485;5144
1489;5146
1490;5149
1491;5151
1490;5153
1488;5156
1492;5158
1490;5161
1487;5164
1487;5166
1487;5169
1485;5171
1485;5174
1485;5176
1483;5178
1487;5181
1494;5183
1500;5186
1498;5188
1496;5190
1504;5193
1510;5195
1505;5198
1497;5200
1494;5202
1497;5206
1496;5208
1493;5211
1492;5213
1494;5216
1497;5218
1495;5220
1492;5223
1496;5225
1496;5228
1491;5230
1484;5232
1480;5235
1479;5237
1480;5240
1480;5242
1477;5244
1476;5248
1475;5250
1477;5253
1482;5255
1489;5257
1489;5260
1488;5262
1489;5265
1496;5267
1500;5269
1497;5272
1496;5274
1502;5277
1508;5279
1509;5281
1508;5284
1504;5286
1493;5289
1484;5292
1480;5295
1485;5297
1494;5299
1494;5302
1493;5304
1493;5307
1491;5309
1490;5311
1499;5314
1505;5316
1499;5319
1495;5321
1495;5323
1488;5326
1480;5328
1475;5331
1473;5334
1475;5336
1480;5339
1480;5341
1481;5344
1482;5346
1481;5348
1480;5351
1480;5353
1478;5356
1479;5358
1486;5360
1495;5363
1499;5365
1504;5368
1510;5370
1505;5373
1498;5376
1491;5378
1490;5381
1491;5383
1488;5386
1481;5388
1479;5390
1478;5393
1478;5395
1477;5398
1477;5400
1475;5402
1474;5405
1476;5407
1475;5410
1471;5412
1472;5414
1478;5417
1480;5420
1478;5423
1478;5425
1475;5427
1470;5430
1469;5432
1469;5435
1477;5437
1478;5439
1472;5442
1470;5444
1481;5447
1487;5449
1492;5452
1503;5454
1502;5456
1495;5459
1490;5462
1484;5465
1479;5467
1479;5469
1481;5472
1480;5474
1484;5477
1482;5479
1481;5481
1487;5484
1488;5486
1482;5489
1475;5491
1473;5493
1480;5496
1480;5498
1480;5501
1478;5504
1472;5506
1469;5509
1468;5511
1467;5514
1467;5516
1475;5518
1484;5521
1490;5523
1494;5526
1494;5528
1493;5530
1505;5533
1511;5535
1509;5538
1505;5540
1500;5543
1493;5545
1486;5548
1483;5551
1480;5553
1476;5556
1479;5558
1484;5560
1489;5563
1493;5565
1489;5568
1486;5570
1486;5572
1484;5575
1482;5577
1479;5580
1477;5582
1481;5584
1489;5587
1491;5590
1487;5593
1483;5595
1485;5597
1486;5600
1485;5602
1484;5605
1490;5607
1493;5609
1510;5612
1517;5614
1513;5617
1503;5619
1500;5622
1503;5624
1495;5626
1491;5629
1494;5632
1489;5635
1484;5637
1483;5639
1483;5642
1493;5644
1504;5647
1508;5649
1508;5651
1503;5654
1494;5656
1489;5659
1489;5661
1489;5663
1486;5666
1483;5668
1479;5671
1482;5673
1486;5676
1486;5679
1491;5681
1501;5684
1499;5686
1494;5689
1490;5691
1488;5693
1494;5696
1501;5698
1496;5701
1495;5703
1500;5705
1507;5708
1506;5710
1500;5713
1494;5715
1494;5718
1499;5721
1499;5723
1497;5726
1495;5728
1497;5730
1498;5733
1499;5735
1500;5738
1501;5740
1497;5742
1495;5745
1494;5747
1501;5750
1508;5752
1506;5755
1500;5757
1493;5760
1491;5763
1499;5765
1499;5768
1498;5770
1497;5772
1494;5775
1491;5777
1489;5780
1492;5782
1494;5784
1497;5787
1495;5789
1490;5792
1492;5794
1497;5796
1500;5799
1497;5801
1497;5805
1511;5807
1516;5809
1515;5812
1511;5814
1508;5817
1517;5819
1526;5821
1527;5824
1524;5826
1513;5829
1501;5831
1494;5834
1492;5836
1499;5838
1508;5841
1510;5843
1506;5847
1503;5849
1496;5851
1491;5854
1487;5856
1486;5859
1486;5861
1489;5863
1493;5866
1497;5868
1499;5871
1502;5873
1504;5875
1509;5878
1511;5880
1513;5883
1510;5885
1506;5888
1511;5891
1513;5893
1515;5896
1516;5898
1519;5901
1521;5903
1521;5905
1517;5908
1514;5910
1510;5913
1503;5915
1499;5917
1493;5920
1490;5922
1487;5925
1485;5927
1490;5929
1503;5933
1507;5935
1502;5938
1496;5940
1490;5942
1486;5945
1485;5947
1485;5950
1484;5952
1485;5954
1488;5957
1497;5959
1505;5962
1507;5964
1507;5967
1506;5969
1504;5971
1505;5975
1507;5977
1506;5980
1500;5982
1502;5984
1504;5987
1500;5989
1499;5992
1503;5994
1505;5996
1509;5999
1511;6001
1510;6004
1505;6006
1497;6008
1494;6011
1495;6013
1494;6017
1490;6019
1486;6021
1485;6024
1485;6026
1486;6029
1490;6031
1495;6034
1493;6036
1490;6038
1497;6041
1512;6043
1520;6046
1513;6048
1506;6050
1499;6053
1493;6055
1487;6059
1483;6061
1484;6063
1484;6066
1483;6068
1484;6071
1493;6073
1507;6075
1512;6078
1508;6080
1502;6083
1498;6085
1492;6087
1486;6090
1479;6092
1476;6095
1482;6097
1482;6100
1479;6103
1482;6105
1487;6108
1489;6110
1486;6113
1486;6115
1483;6117
1480;6120
1478;6122
1477;6125
1478;6127
1477;6129
1475;6132
1476;6134
1487;6137
1503;6139
1509;6141
1501;6145
1496;6147
1492;6150
1503;6152
1504;6154
1496;6157
1490;6159
1485;6162
1483;6164
1482;6167
1481;6169
1489;6171
1494;6174
1490;6176
1485;6179
1482;6181
1477;6183
1471;6187
1466;6189
1464;6192
1465;6194
1465;6196
1466;6199
1471;6201
1478;6204
1479;6206
1479;6208
1482;6211
1489;6213
1497;6216
1496;6218
1489;6220
1483;6223
1480;6225
1487;6228
1498;6231
1509;6233
1508;6236
1501;6238
1494;6241
1490;6243
1487;6246
1486;6248
1482;6250
1481;6253
1482;6255
1476;6258
1473;6260
1481;6262
1494;6265
1489;6267
1481;6270
1471;6273
1466;6275
1461;6278
1464;6280
1467;6283
1466;6285
1467;6287
1472;6290
1476;6292
1480;6295
1484;6297
1480;6299
1476;6302
1473;6304
1479;6307
1489;6309
1489;6312
1487;6315
1503;6317
1506;6320
1495;6322
1485;6325
1483;6327
1483;6329
1482;6332
1480;6334
1476;6337
1476;6339
1479;6341
1475;6344
1469;6346
1465;6349
1462;6351
1466;6353
1474;6356
1478;6359
1476;6362
1470;6364
1468;6366
1471;6369
1473;6371
1477;6374
1477;6376
1478;6379
1479;6381
1476;6383
1477;6386
1478;6388
1483;6391
1483;6393
1482;6395
1480;6398
1479;6401
1483;6404
1487;6406
1490;6408
1499;6411
1496;6413
1494;6416
1498;6418
1501;6420
1501;6423
1501;6425
1493;6428
1489;6430
1480;6432
1473;6435
1468;6437
1467;6440
1466;6443
1469;6445
1476;6448
1483;6450
1484;6453
1481;6455
1479;6457
1476;6460
1476;6462
1479;6465
1488;6467
1495;6469
1501;6472
1506;6474
1506;6477
1498;6479
1494;6482
1498;6484
1498;6487
1496;6490
1497;6492
1494;6495
1495;6497
1492;6499
1487;6502
1486;6504
1486;6507
1489;6509
1495;6511
1493;6514
1490;6516
1490;6519
1490;6521
1487;6523
1485;6526
1487;6529
1488;6532
1485;6534
1481;6536
1483;6539
1486;6541
1492;6544
1499;6546
1500;6548
1496;6551
1495;6553
1500;6556
1503;6558
1506;6560
1504;6563
1503;6565
1500;6568
1498;6571
1495;6574
1496;6576
1501;6578
1507;6581
1510;6583
1505;6586
1499;6588
1496;6590
1499;6593
1498;6595
1495;6598
1493;6600
1488;6602
1484;6605
1481;6607
1481;6610
1482;6612
1488;6615
1494;6618
1499;6620
1503;6623
1503;6625
1507;6627
1508;6630
1512;6632
1518;6635
1515;6637
1519;6639
1515;6642
1510;6644
1507;6647
1503;6649
1504;6651
1503;6654
1505;6657
1502;6660
1501;6662
1506;6665
1506;6667
1500;6669
1495;6672
1493;6674
1488;6677
1483;6679
1484;6681
1489;6684
1489;6686
1485;6689
1484;6691
1488;6693
1490;6696
1495;6699
1503;6702
1509;6704
1508;6706
1508;6709
1511;6711
1511;6714
1507;6716
1504;6718
1501;6721
1511;6723
1513;6726
1513;6728
1513;6730
1508;6733
1516;6735
1515;6738
1509;6740
1500;6744
1493;6746
1503;6748
1508;6751
1504;6753
1497;6756
1495;6758
1489;6760
1486;6763
1483;6765
1481;6768
1481;6770
1481;6772
1480;6775
1480;6777
1482;6780
1486;6782
1487;6785
1492;6788
1498;6790
1501;6793
1501;6795
1497;6797
1492;6800
1495;6802
1508;6805
1512;6807
1513;6809
1513;6812
1509;6814
1505;6817
1498;6819
1499;6822
1498;6824
1495;6827
1491;6830
1499;6832
1508;6835
1505;6837
1502;6839
1498;6842
1491;6844
1483;6847
1479;6849
1478;6851
1478;6854
1479;6856
1482;6859
1489;6861
1490;6863
1490;6866
1492;6868
1492;6872
1497;6874
1497;6876
1494;6879
1489;6881
1485;6884
1489;6886
1493;6888
1493;6891
1497;6893
1504;6896
1507;6898
1504;6901
1498;6903
1492;6905
1488;6908
1499;6910
1497;6914
1494;6916
1493;6918
1489;6921
1490;6923
1490;6926
1493;6928
1494;6930
1489;6933
1483;6935
1479;6938
1473;6940
1470;6942
1470;6945
1474;6947
1476;6950
1478;6952
1478;6955
1480;6958
1481;6960
1485;6963
1488;6965
1497;6968
1502;6970
1502;6972
1497;6975
1498;6977
1494;6980
1490;6982
1488;6984
1485;6987
1489;6989
1494;6992
1497;6994
1500;6996
1497;7000
1492;7002
1488;7005
1486;7007
1484;7009
1481;7012
1480;7014
1493;7017
1499;7019
1494;7021
1485;7024
1480;7026
1478;7029
1477;7031
1476;7033
1479;7036
1482;7038
1482;7042
1484;7044
1491;7047
1494;7049
1504;7051
1503;7054
1496;7056
1506;7059
1509;7061
1502;7063
1492;7066
1486;7068
1489;7071
1492;7073
1489;7075
1486;7078
1482;7080
1477;7084
1476;7086
1481;7088
1486;7091
1488;7093
1486;7096
1484;7098
1485;7100
1484;7103
1482;7105
1485;7108
1485;7110
1482;7113
1479;7115
1480;7117
1482;7120
1483;7122
1486;7126
1485;7128
1477;7130
1475;7133
1482;7135
1489;7138
1493;7140
1500;7142
1506;7145
1502;7147
1499;7150
1495;7152
1497;7154
1492;7157
1484;7159
1477;7162
1473;7164
1469;7166
1471;7170
1479;7172
1482;7175
1479;7177
1476;7180
1475;7182
1475;7184
1482;7187
1491;7189
1496;7192
1492;7194
1489;7196
1494;7199
1496;7201
1491;7204
1484;7206
1485;7208
1485;7212
1491;7214
1493;7217
1498;7219
1504;7221
1507;7224
1502;7226
1500;7229
1501;7231
1504;7233
1508;7236
1505;7238
1501;7241
1499;7243
1503;7245
1509;7248
1505;7250
1503;7254
1502;7256
1495;7259
1491;7261
1490;7263
1486;7266
1483;7268
1479;7271
1478;7273
1480;7275
1487;7278
1491;7280
1498;7283
1508;7285
1509;7287
1509;7290
1507;7292
1506;7296
1503;7298
1512;7300
1514;7303
1509;7305
1503;7308
1503;7310
1507;7312
1506;7315
1505;7317
1505;7320
1501;7322
1499;7325
1500;7327
1505;7329
1507;7332
1505;7334
1501;7337
1500;7340
1502;7342
1500;7345
1495;7347
1494;7350
1491;7352
1488;7354
1486;7357
1492;7359
1497;7362
1496;7364
1499;7366
1496;7369
1491;7371
1492;7374
1496;7376
1499;7378
1500;7382
1501;7384
1500;7387
1495;7389
1487;7391
1482;7394
1487;7396
1498;7399
1497;7401
1490;7404
1483;7406
1478;7408
1476;7411
1482;7413
1483;7416
1482;7418
1487;7420
1494;7424
1497;7426
1492;7429
1487;7431
1482;7433
1480;7436
1487;7438
1501;7441
1503;7443
1504;7445
1503;7448
1497;7450
1499;7453
1498;7455
1492;7457
1486;7460
1481;7462
1480;7465
1483;7468
1484;7471
1483;7473
1484;7475
1486;7478
1487;7480
1494;7483
1499;7485
1497;7487
1494;7490
1489;7492
1482;7495
1479;7497
1479;7499
1477;7502
1476;7504
1480;7507
1487;7510
1492;7512
1495;7515
1492;7517
1488;7520
1486;7522
1482;7524
1493;7527
1506;7529
1505;7532
1497;7534
1488;7537
1481;7539
1477;7541
1478;7544
1480;7546
1480;7549
1479;7552
1484;7554
1486;7557
1482;7559
1475;7562
1473;7564
1477;7566
1484;7569
1487;7571
1486;7574
1484;7576
1481;7578
1476;7581
1473;7583
1471;7586
1471;7588
1472;7590
1479;7593
1490;7596
1489;7599
1486;7601
1492;7604
1499;7606
1493;7608
1497;7611
1495;7613
1483;7616
1479;7618
1481;7620
1487;7623
1485;7625
1485;7628
1487;7630
1498;7632
1508;7635
1502;7638
1488;7641
1482;7643
1477;7645
1470;7648
1463;7650
1461;7653
1463;7655
1473;7657
1478;7660
1474;7662
1472;7665
1467;7667
1462;7670
1460;7672
1465;7674
1475;7677
1480;7680
1480;7683
1479;7685
1478;7687
1480;7690
1480;7692
1479;7695
1480;7697
1475;7699
1471;7702
1480;7704
1483;7707
1484;7709
1487;7711
1491;7714
1489;7716
1501;7719
1506;7721
1494;7724
1484;7727
1484;7729
1485;7732
1483;7734
1479;7736
1480;7739
1479;7741
1480;7744
1480;7746
1476;7749
1472;7751
1471;7753
1477;7756
1483;7758
1488;7761
1487;7763
1487;7766
1488;7769
1505;7771
1511;7774
1510;7776
1504;7778
1507;7781
1516;7783
1516;7786
1506;7788
1488;7790
1478;7793
1475;7795
1471;7798
1472;7800
1474;7802
1469;7805
1464;7808
1464;7811
1467;7813
1470;7815
1469;7818
1466;7820
1467;7823
1470;7825
1474;7828
1477;7830
1481;7832
1484;7835
1483;7837
1482;7840
1492;7842
1499;7844
1499;7847
1497;7849
1494;7853
1503;7855
1517;7857
1521;7860
1526;7862
1522;7865
1510;7867
1500;7869
1492;7872
1490;7874
1491;7877
1490;7879
1488;7881
1487;7884
1486;7886
1488;7889
1483;7891
1477;7894
1477;7897
1476;7899
1483;7902
1499;7904
1514;7907
1514;7909
1505;7911
1500;7914
1493;7916
1488;7919
1486;7921
1500;7923
1510;7926
1520;7928
1525;7931
1518;7933
1521;7936
1518;7939
1511;7941
1508;7944
1509;7946
1507;7948
1501;7951
1499;7953
1501;7956
1501;7958
1499;7961
1497;7963
1496;7965
1497;7968
1501;7970
1507;7973
1504;7975
1496;7977
1492;7981
1494;7983
1503;7986
1509;7988
1515;7990
1510;7993
1501;7995
1500;7998
1497;8000
1495;8002
1498;8005
1504;8007
1502;8010
1497;8012
1495;8014
1499;8017
1503;8019
1505;8023
1518;8025
1520;8027
1516;8030
1510;8032
1499;8035
1497;8037
1506;8040
1504;8042
1499;8044
1493;8047
1485;8049
1481;8052
1480;8054
1480;8056
1483;8059
1491;8061
1496;8065
1501;8067
1501;8069
1501;8072
1511;8074
1522;8077
1521;8079
1514;8081
1511;8084
1510;8086
1509;8089
1504;8091
1496;8093
1490;8096
1492;8098
1501;8101
1511;8103
1516;8105
1511;8109
1505;8111
1508;8114
1508;8116
1508;8119
1507;8121
1505;8123
1504;8126
1498;8128
1488;8131
1483;8133
1484;8135
1488;8138
1489;8140
1486;8143
1481;8145
1483;8147
1485;8151
1486;8153
1487;8156
1491;8158
1495;8160
1501;8163
1508;8165
1515;8168
1515;8170
1514;8172
1519;8175
1515;8177
1506;8180
1499;8182
1495;8184
1496;8187
1501;8189
1505;8193
1504;8195
1500;8198
1503;8200
1506;8202
1505;8205
1504;8207
1499;8210
1496;8212
1496;8214
1493;8217
1492;8219
1491;8222
1486;8224
1479;8226
1477;8229
1479;8231
1486;8235
1485;8237
1477;8239
1476;8242
1475;8244
1474;8247
1479;8249
1480;8251
1481;8254
1483;8256
1496;8259
1500;8261
1497;8264
1493;8266
1491;8268
1492;8271
1499;8273
1509;8276
1511;8279
1509;8281
1502;8284
1496;8286
1494;8289
1500;8291
1499;8293
1491;8296
1488;8298
1492;8301
1491;8303
1484;8305
1478;8308
1472;8310
1472;8313
1475;8315
1481;8317
1481;8321
1480;8323
1492;8326
1498;8328
1494;8330
1491;8333
1487;8335
1491;8338
1501;8340
1516;8343
1513;8345
1507;8347
1510;8350
1506;8352
1498;8355
1491;8357
1488;8359
1497;8363
1511;8365
1516;8368
1514;8370
1512;8372
1504;8375
1501;8377
1503;8380
1496;8382
1488;8384
1485;8387
1477;8389
1472;8392
1469;8394
1467;8396
1467;8399
1470;8401
1474;8404
1478;8407
1482;8409
1499;8412
1507;8414
1503;8417
1495;8419
1493;8421
1503;8424
1507;8426
1506;8429
1504;8431
1497;8434
1497;8436
1505;8438
1503;8441
1496;8443
1492;8446
1491;8449
1487;8451
1483;8454
1483;8456
1488;8459
1496;8461
1496;8463
1490;8466
1485;8468
1481;8471
1476;8473
1476;8475
1476;8478
1477;8480
1478;8483
1476;8485
1478;8487
1484;8491
1499;8493
1500;8496
1498;8498
1498;8500
1498;8503
1492;8505
1501;8508
1524;8510
1523;8513
1512;8515
1505;8517
1500;8520
1493;8522
1490;8525
1488;8527
1487;8529
1492;8532
1496;8535
1492;8538
1486;8540
1482;8542
1482;8545
1480;8547
1479;8550
1487;8552
1490;8554
1489;8557
1490;8559
1486;8562
1482;8564
1478;8566
1479;8569
1482;8571
1489;8574
1499;8577
1499;8580
1493;8582
1491;8584
1495;8587
1497;8589
1498;8592
1503;8594
1508;8596
1510;8599
1521;8601
1543;8604
1542;8606
1535;8608
1528;8611
1515;8613
1501;8616
1487;8619
1476;8621
1473;8624
1472;8626
1470;8629
1470;8631
1476;8633
1481;8636
1481;8638
1483;8641
1481;8643
1478;8645
1478;8648
1481;8650
1489;8653
1491;8655
1491;8658
1488;8660
1493;8663
1524;8666
1539;8668
1528;8671
1514;8673
1513;8675
1505;8678
1493;8680
1490;8683
1501;8685
1508;8687
1516;8690
1528;8692
1523;8695
1507;8697
1496;8699
1486;8702
1476;8705
1469;8708
1469;8710
1472;8712
1474;8715
1478;8717
1482;8720
1488;8722
1489;8725
1489;8727
1492;8729
1493;8732
1491;8734
1493;8737
1495;8739
1517;8741
1544;8744
1548;8747
1539;8750
1524;8752
1514;8754
1510;8757
1516;8759
1522;8762
1520;8764
1521;8766
1519;8769
1516;8771
1523;8774
1532;8776
1535;8778
1526;8781
1510;8783
1505;8786
1500;8788
1495;8792
1488;8794
1483;8796
1481;8799
1478;8801
1475;8804
1474;8806
1479;8808
1482;8811
1482;8813
1480;8816
1481;8818
1485;8820
1487;8823
1495;8825
1516;8828
1530;8830
1536;8833
1538;8836
1542;8838
1543;8841
1532;8843
1514;8845
1506;8848
1517;8850
1535;8853
1525;8855
1514;8857
1507;8860
1497;8862
1493;8865
1491;8867
1489;8870
1483;8872
1478;8875
1476;8878
1478;8880
1483;8883
1488;8885
1488;8887
1492;8890
1496;8892
1498;8895
1500;8897
1500;8899
1496;8902
1500;8904
1510;8907
1525;8909
1532;8911
1527;8914
1539;8916
1534;8920
1526;8922
1519;8924
1529;8927
1533;8929
1524;8932
1515;8934
1510;8937
1512;8939
1503;8941
1495;8944
1494;8946
1505;8949
1517;8951
1513;8953
1502;8956
1492;8958
1486;8962
1483;8964
1487;8966
1489;8969
1488;8971
1492;8974
1495;8976
1509;8978
1530;8981
1535;8983
1532;8986
1520;8988
1516;8990
1520;8993
1515;8995
1508;8998
1498;9000
1494;9003
1503;9006
1509;9008
1506;9011
1513;9013
1533;9016
1537;9018
1533;9020
1517;9023
1513;9025
1505;9028
1503;9030
1501;9032
1494;9035
1490;9037
1487;9040
1489;9042
1493;9044
1493;9048
1492;9050
1491;9053
1492;9055
1498;9057
1511;9060
1517;9062
1520;9065
1525;9067
1532;9069
1528;9072
1514;9074
1509;9077
1510;9079
1506;9081
1509;9084
1510;9086
1502;9090
1496;9092
1495;9095
1491;9097
1486;9099
1483;9102
1482;9104
1488;9107
1495;9109
1497;9111
1495;9114
1489;9116
1485;9119
1485;9121
1484;9123
1485;9126
1484;9128
1484;9132
1484;9134
1485;9136
1485;9139
1484;9141
1483;9144
1485;9146
1491;9148
1495;9151
1497;9153
1495;9156
1490;9158
1487;9161
1486;9163
1485;9165
1484;9168
1484;9170
1485;9174
1486;9176
1487;9178
1489;9181
1492;9183
1493;9186
1493;9188
1492;9190
1491;9193
1490;9195
1490;9198
1491;9200
1491;9202
1491;9205
1492;9207
1492;9210
1493;9212
1494;9214
1494;9218
1494;9220
1495;9223
1495;9225
1496;9228
1497;9230
1499;9232
1501;9235
1502;9237
1506;9240
1507;9242
1507;9244
1507;9247
1510;9249
1510;9252
1507;9254
1504;9256
1501;9260
1500;9262
1499;9265
1498;9267
1498;9269
1498;9272
1498;9274
1498;9277
1498;9279
1498;9281
1499;9284
1499;9286
1499;9289
1499;9291
1498;9294
1498;9296
1498;9298
1498;9302
1497;9304
1497;9307
1497;9309
1497;9311
1497;9314
1497;9316
1497;9319
1496;9321
1496;9323
1496;9326
1496;9328
1495;9331
1494;9333
1494;9335
1493;9338
1493;9340
1493;9344
1493;9346
1495;9348
1496;9351
1495;9353
1496;9356
1496;9358
1497;9361
1498;9363
1499;9365
1500;9368
1499;9370
1498;9373
1497;9375
1497;9377
1497;9380
1497;9382
1497;9385
1497;9388
1497;9390
1499;9393
1499;9395
1498;9398
1497;9400
1497;9402
1499;9405
1500;9407
1500;9410
1498;9412
1497;9414
1496;9417
1494;9419
1493;9422
1492;9424
1491;9427
1491;9430
1491;9432
1490;9435
1490;9437
1490;9440
1489;9442
1488;9444
1488;9447
1488;9449
1488;9452
1488;9454
1489;9456
1489;9459
1490;9461
1490;9464
1491;9466
1492;9468
1492;9472
1492;9474
1493;9477
1493;9479
1493;9481
1494;9484
1495;9486
1496;9489
1497;9491
1497;9494
1496;9496
1496;9498
1496;9501
1498;9503
1498;9506
1499;9508
1499;9510
1498;9513
1498;9516
1498;9519
