emg;time
1481;2
1485;4
1491;7
1495;9
1496;11
1491;13
1491;16
1489;18
1486;20
1483;23
1478;25
1477;27
1479;30
1494;32
1505;34
1506;36
1499;39
1492;41
1488;44
1488;47
1487;49
1483;51
1479;54
1478;56
1478;58
1481;61
1487;63
1493;65
1494;67
1491;70
1485;72
1482;74
1482;77
1481;79
1479;81
1481;84
1494;87
1498;89
1500;91
1498;94
1495;96
1492;98
1487;101
1484;103
1484;105
1486;108
1491;110
1491;112
1492;115
1497;117
1499;120
1498;122
1491;124
1486;128
1486;130
1488;132
1489;135
1486;137
1487;139
1492;142
1493;144
1492;146
1492;149
1489;151
1492;153
1494;156
1495;158
1493;161
1491;163
1493;165
1500;168
1509;171
1507;173
1502;176
1497;178
1500;180
1505;183
1507;185
1503;187
1499;190
1496;192
1494;194
1493;197
1492;199
1494;202
1499;204
1502;206
1501;209
1508;211
1510;214
1510;217
1512;219
1510;221
1504;224
1501;226
1497;228
1494;231
1492;233
1495;235
1497;238
1496;240
1499;243
1508;245
1510;247
1506;250
1504;252
1502;254
1499;258
1494;260
1490;262
1486;265
1484;267
1484;269
1485;272
1487;274
1488;277
1490;279
1491;281
1495;284
1497;286
1500;288
1504;291
1501;293
1497;295
1497;299
1497;301
1500;303
1502;306
1501;308
1505;310
1503;313
1497;315
1493;318
1490;320
1488;322
1485;325
1484;327
1485;329
1484;332
1483;334
1483;336
1483;339
1487;342
1494;344
1504;347
1509;349
1511;351
1511;354
1509;356
1504;359
1496;361
1487;363
1483;366
1481;368
1481;370
1482;373
1491;375
1495;377
1495;380
1495;382
1492;385
1493;388
1501;390
1508;392
1516;395
1513;397
1505;400
1500;402
1496;404
1493;407
1491;409
1489;411
1485;414
1480;416
1477;418
1474;421
1472;423
1473;425
1475;429
1475;431
1476;434
1481;436
1494;438
1509;441
1516;443
1513;445
1504;448
1500;450
1496;452
1494;455
1491;457
1495;459
1496;462
1492;464
1490;466
1487;470
1489;472
1498;475
1519;477
1544;479
1543;482
1527;484
1514;486
1506;489
1504;491
1512;493
1524;496
1528;498
1538;500
1537;503
1529;505
1537;507
1532;510
1518;513
1513;516
1521;518
1522;520
1516;523
1516;525
1516;527
1527;530
1542;532
1552;534
1594;537
1599;539
1582;541
1546;544
1525;546
1517;548
1528;551
1536;553
1529;557
1514;559
1504;561
1532;564
1551;566
1563;568
1560;571
1540;573
1538;575
1543;578
1560;580
1562;582
1542;585
1520;587
1489;590
1468;592
1469;594
1470;598
1477;600
1517;602
1538;605
1533;607
1546;609
1574;612
1582;614
1568;616
1549;619
1539;621
1513;623
1479;626
1507;628
1518;631
1508;633
1530;635
1545;638
1540;641
1536;643
1518;646
1497;648
1456;650
1452;653
1464;655
1464;657
1460;660
1455;662
1455;665
1467;667
1466;669
1467;672
1458;674
1462;676
1476;679
1450;681
1425;684
1396;687
1393;689
1414;691
1455;694
1491;696
1555;698
1550;701
1495;703
1441;706
1412;708
1400;710
1399;713
1407;715
1413;717
1436;720
1459;722
1447;724
1433;728
1430;730
1436;732
1440;735
1479;737
1508;740
1514;742
1513;744
1496;747
1461;749
1449;751
1448;754
1447;756
1445;758
1448;761
1495;763
1541;765
1555;769
1549;771
1528;773
1512;776
1495;778
1485;781
1458;783
1443;785
1517;788
1544;790
1536;792
1503;795
1491;797
1471;799
1501;802
1524;804
1502;806
1475;809
1503;812
1500;815
1494;817
1467;819
1463;822
1473;824
1522;826
1546;829
1558;831
1529;833
1470;836
1423;838
1400;840
1393;843
1397;845
1406;847
1426;850
1453;852
1469;856
1495;858
1505;860
1498;863
1469;865
1452;867
1456;870
1475;872
1500;874
1498;877
1492;879
1485;881
1503;884
1498;886
1466;888
1440;891
1432;893
1434;897
1440;899
1463;901
1498;904
1534;906
1526;908
1545;911
1556;913
1546;915
1503;918
1475;920
1478;922
1514;925
1508;927
1479;930
1466;932
1459;934
1444;937
1435;940
1439;942
1447;945
1452;947
1498;949
1570;952
1570;954
1544;956
1530;959
1523;961
1501;963
1490;966
1501;968
1516;971
1540;973
1534;975
1499;978
1473;980
1497;983
1516;986
1515;988
1506;990
1485;993
1446;995
1424;997
1410;1000
1406;1002
1404;1005
1406;1007
1441;1009
1477;1012
1484;1014
1482;1017
1527;1019
1542;1021
1522;1025
1543;1027
1551;1030
1509;1032
1474;1034
1454;1037
1450;1039
1466;1042
1495;1044
1522;1046
1524;1049
1507;1051
1485;1054
1468;1056
1495;1059
1504;1061
1498;1063
1468;1067
1454;1069
1457;1072
1472;1074
1475;1076
1469;1079
1484;1081
1504;1084
1483;1086
1459;1088
1463;1091
1471;1093
1475;1096
1489;1098
1498;1100
1490;1103
1477;1105
1483;1108
1514;1111
1540;1113
1542;1116
1520;1118
1487;1121
1465;1123
1452;1125
1452;1128
1487;1130
1512;1133
1499;1135
1473;1137
1457;1140
1438;1142
1447;1145
1471;1147
1483;1150
1471;1153
1457;1155
1466;1158
1481;1160
1479;1163
1475;1165
1485;1167
1499;1170
1492;1172
1482;1175
1500;1177
1527;1179
1514;1182
1503;1184
1503;1187
1524;1189
1523;1191
1483;1195
1462;1197
1475;1200
1485;1202
1517;1204
1534;1207
1528;1209
1479;1212
1435;1214
1413;1216
1420;1219
1443;1221
1481;1224
1488;1226
1477;1228
1459;1231
1466;1233
1463;1236
1474;1239
1483;1241
1490;1244
1495;1246
1479;1249
1471;1251
1494;1254
1521;1256
1537;1258
1516;1261
1485;1263
1466;1266
1451;1268
1445;1270
1466;1273
1533;1275
1545;1278
1518;1281
1480;1283
1500;1286
1503;1288
1469;1291
1458;1293
1485;1295
1482;1298
1478;1300
1483;1303
1499;1305
1513;1307
1485;1310
1454;1312
1435;1315
1426;1317
1433;1319
1457;1323
1521;1325
1535;1328
1507;1330
1486;1332
1477;1335
1479;1337
1489;1340
1488;1342
1481;1344
1462;1347
1454;1349
1482;1352
1497;1354
1491;1357
1489;1359
1513;1361
1535;1364
1523;1367
1525;1370
1509;1372
1474;1374
1466;1377
1469;1379
1468;1382
1462;1384
1461;1386
1482;1389
1507;1391
1507;1394
1495;1396
1486;1398
1471;1401
1466;1403
1476;1406
1470;1409
1461;1411
1493;1414
1538;1416
1558;1419
1534;1421
1536;1423
1522;1426
1480;1428
1444;1431
1440;1433
1443;1435
1457;1438
1487;1440
1492;1443
1503;1445
1485;1448
1503;1451
1511;1453
1491;1456
1458;1458
1451;1461
1457;1463
1485;1465
1516;1468
1527;1470
1516;1473
1493;1475
1472;1477
1444;1480
1434;1482
1433;1485
1438;1487
1452;1489
1467;1492
1525;1495
1568;1498
1556;1500
1512;1502
1490;1505
1470;1507
1474;1510
1471;1512
1474;1514
1480;1517
1475;1519
1500;1522
1516;1524
1517;1526
1502;1529
1502;1531
1515;1534
1510;1537
1479;1540
1467;1542
1477;1544
1491;1547
1491;1549
1480;1552
1470;1554
1475;1556
1479;1559
1485;1561
1504;1564
1538;1566
1551;1568
1546;1571
1519;1573
1505;1576
1514;1579
1501;1581
1478;1584
1459;1586
1489;1589
1497;1591
1479;1593
1516;1596
1570;1598
1560;1601
1510;1603
1463;1605
1451;1608
1453;1610
1459;1613
1498;1615
1537;1617
1549;1620
1522;1623
1518;1626
1522;1628
1499;1631
1469;1633
1443;1635
1444;1638
1462;1640
1494;1643
1518;1645
1521;1647
1506;1650
1501;1652
1497;1655
1499;1657
1521;1659
1499;1662
1473;1665
1449;1668
1442;1670
1452;1672
1465;1675
1493;1677
1507;1680
1492;1682
1503;1684
1506;1687
1501;1689
1493;1692
1504;1694
1504;1696
1497;1699
1491;1701
1507;1704
1532;1707
1513;1709
1489;1712
1487;1714
1482;1717
1483;1719
1492;1721
1511;1724
1508;1726
1485;1729
1464;1731
1467;1734
1495;1736
1522;1738
1529;1741
1525;1743
1523;1746
1527;1748
1518;1751
1519;1754
1537;1756
1523;1759
1492;1761
1493;1763
1490;1766
1487;1768
1497;1771
1535;1773
1525;1775
1492;1778
1473;1780
1471;1783
1537;1785
1585;1787
1583;1790
1540;1793
1498;1796
1463;1798
1463;1800
1481;1803
1472;1805
1450;1808
1465;1810
1474;1812
1460;1815
1450;1817
1479;1820
1485;1822
1458;1824
1445;1827
1472;1829
1489;1832
1495;1835
1513;1838
1533;1840
1530;1842
1501;1845
1469;1847
1459;1850
1456;1852
1452;1854
1465;1857
1485;1859
1492;1862
1495;1864
1516;1866
1546;1869
1553;1871
1508;1874
1460;1876
1454;1879
1485;1882
1497;1884
1502;1887
1487;1889
1481;1891
1483;1894
1487;1896
1468;1899
1451;1901
1511;1903
1536;1906
1517;1908
1481;1911
1474;1913
1484;1916
1486;1918
1469;1921
1448;1924
1443;1926
1470;1929
1498;1931
1509;1933
1540;1936
1531;1938
1507;1941
1488;1943
1510;1945
1524;1948
1514;1950
1496;1953
1518;1955
1546;1957
1534;1960
1496;1963
1500;1966
1525;1968
1515;1970
1492;1973
1459;1975
1450;1978
1453;1980
1466;1982
1497;1985
1514;1987
1495;1990
1467;1992
1455;1994
1465;1997
1483;1999
1514;2002
1536;2004
1513;2008
1504;2010
1512;2012
1531;2015
1522;2017
1487;2020
1464;2022
1456;2024
1478;2027
1504;2029
1506;2032
1516;2034
1509;2036
1483;2039
1468;2041
1465;2044
1465;2046
1468;2049
1476;2052
1481;2054
1486;2057
1516;2059
1540;2061
1543;2064
1528;2066
1504;2069
1512;2071
1544;2073
1542;2076
1498;2078
1483;2081
1487;2083
1504;2085
1506;2088
1499;2091
1487;2094
1495;2096
1515;2098
1515;2101
1484;2103
1461;2106
1457;2108
1480;2111
1532;2113
1546;2115
1538;2118
1534;2120
1529;2123
1517;2125
1493;2127
1482;2130
1494;2132
1495;2136
1482;2138
1508;2140
1531;2143
1535;2145
1519;2148
1488;2150
1470;2152
1497;2155
1511;2157
1515;2160
1518;2162
1518;2164
1505;2167
1526;2169
1517;2172
1499;2174
1491;2177
1521;2180
1522;2182
1529;2185
1545;2187
1540;2190
1522;2192
1519;2194
1503;2197
1519;2199
1559;2202
1562;2204
1550;2206
1504;2209
1487;2211
1503;2214
1528;2216
1536;2219
1505;2222
1473;2224
1459;2227
1465;2229
1488;2231
1521;2234
1530;2236
1529;2239
1502;2241
1504;2243
1512;2246
1503;2248
1503;2251
1488;2253
1504;2255
1526;2258
1510;2260
1487;2264
1480;2266
1520;2268
1538;2271
1519;2273
1507;2276
1509;2278
1549;2281
1570;2283
1562;2285
1547;2288
1543;2290
1530;2293
1519;2295
1527;2297
1518;2300
1507;2302
1506;2306
1526;2308
1526;2310
1504;2313
1514;2315
1533;2318
1514;2320
1500;2322
1549;2325
1566;2327
1550;2330
1527;2332
1515;2334
1505;2337
1528;2339
1540;2342
1565;2344
1556;2348
1539;2350
1538;2352
1565;2355
1573;2357
1562;2360
1534;2362
1573;2364
1613;2367
1644;2369
1597;2372
1552;2374
1531;2376
1526;2379
1535;2381
1542;2384
1537;2386
1581;2388
1610;2392
1611;2394
1566;2397
1556;2399
1553;2401
1533;2404
1520;2406
1507;2409
1520;2411
1573;2413
1587;2416
1572;2418
1545;2421
1537;2423
1554;2425
1572;2428
1577;2430
1564;2434
1529;2436
1511;2439
1522;2441
1524;2443
1519;2446
1519;2448
1570;2451
1576;2453
1575;2455
1567;2458
1547;2460
1531;2463
1560;2465
1571;2467
1553;2470
1520;2472
1553;2476
1636;2478
1634;2480
1604;2483
1567;2485
1529;2488
1510;2490
1559;2492
1607;2495
1593;2497
1554;2500
1519;2502
1532;2505
1556;2507
1575;2509
1561;2512
1528;2514
1518;2518
1556;2520
1591;2522
1620;2525
1616;2527
1575;2530
1566;2532
1560;2534
1563;2537
1548;2539
1537;2542
1586;2544
1588;2546
1555;2549
1531;2551
1547;2554
1596;2556
1583;2558
1554;2562
1538;2564
1569;2567
1610;2569
1591;2571
1563;2574
1585;2576
1618;2579
1632;2581
1600;2584
1578;2586
1574;2588
1593;2591
1607;2593
1574;2596
1553;2598
1592;2600
1640;2604
1621;2606
1573;2609
1541;2611
1530;2613
1536;2616
1543;2618
1560;2621
1576;2623
1582;2625
1574;2628
1566;2630
1581;2633
1566;2635
1560;2637
1535;2640
1505;2642
1524;2646
1563;2648
1575;2650
1593;2653
1578;2655
1565;2658
1557;2660
1557;2662
1570;2665
1556;2667
1550;2670
1565;2672
1568;2675
1571;2677
1590;2679
1606;2682
1570;2684
1557;2688
1525;2690
1488;2692
1479;2695
1540;2697
1596;2700
1603;2702
1583;2704
1566;2707
1527;2709
1494;2712
1487;2714
1486;2716
1498;2719
1512;2721
1513;2724
1521;2726
1543;2728
1577;2732
1609;2734
1624;2737
1621;2739
1590;2741
1559;2744
1545;2746
1534;2749
1550;2751
1579;2753
1573;2756
1551;2758
1543;2761
1534;2763
1564;2766
1608;2768
1624;2770
1621;2774
1606;2776
1574;2779
1524;2781
1490;2783
1511;2786
1586;2788
1619;2791
1582;2793
1528;2795
1529;2798
1569;2800
1597;2803
1563;2805
1500;2807
1464;2810
1480;2812
1520;2816
1588;2818
1588;2820
1551;2823
1523;2825
1498;2828
1486;2830
1472;2832
1489;2835
1494;2837
1496;2840
1509;2842
1523;2844
1563;2847
1563;2849
1548;2852
1534;2854
1531;2857
1515;2860
1508;2862
1520;2865
1528;2867
1551;2870
1561;2872
1575;2874
1582;2877
1569;2879
1529;2882
1500;2884
1535;2886
1601;2889
1602;2891
1583;2894
1542;2896
1512;2898
1507;2902
1517;2904
1518;2907
1503;2909
1486;2911
1500;2914
1543;2916
1551;2919
1550;2921
1513;2923
1512;2926
1525;2928
1523;2931
1501;2933
1468;2936
1510;2938
1555;2940
1552;2944
1530;2946
1542;2949
1550;2951
1538;2953
1536;2956
1529;2958
1514;2961
1501;2963
1553;2965
1584;2968
1584;2970
1559;2973
1525;2975
1509;2977
1503;2980
1502;2982
1537;2985
1545;2988
1509;2990
1475;2993
1482;2995
1494;2998
1509;3000
1511;3002
1505;3005
1494;3007
1507;3010
1530;3012
1548;3015
1534;3017
1544;3019
1537;3022
1520;3024
1521;3027
1538;3030
1540;3032
1530;3035
1506;3037
1477;3040
1468;3042
1468;3044
1478;3047
1501;3049
1506;3052
1489;3054
1533;3056
1548;3059
1525;3061
1510;3064
1484;3066
1461;3068
1465;3072
1477;3074
1481;3077
1524;3079
1556;3081
1536;3084
1503;3086
1463;3089
1452;3091
1502;3094
1549;3096
1559;3098
1524;3101
1478;3103
1452;3106
1450;3108
1464;3110
1486;3113
1488;3116
1482;3119
1466;3121
1464;3123
1497;3126
1539;3128
1523;3131
1496;3133
1495;3135
1500;3138
1485;3140
1481;3143
1495;3145
1532;3147
1572;3150
1572;3152
1532;3155
1485;3158
1443;3161
1454;3163
1488;3165
1506;3168
1480;3170
1517;3173
1564;3175
1549;3177
1508;3180
1496;3182
1468;3185
1427;3187
1411;3189
1469;3192
1530;3194
1584;3197
1567;3200
1524;3202
1484;3205
1477;3207
1481;3210
1482;3212
1477;3214
1496;3217
1511;3219
1514;3222
1484;3224
1456;3226
1448;3229
1463;3231
1491;3234
1491;3236
1461;3238
1459;3241
1473;3244
1491;3247
1495;3249
1469;3252
1478;3254
1487;3256
1475;3259
1486;3261
1507;3264
1503;3266
1486;3268
1483;3271
1477;3273
1447;3276
1425;3278
1403;3280
1388;3283
1401;3286
1436;3289
1469;3291
1499;3293
1474;3296
1436;3298
1420;3301
1429;3303
1436;3305
1442;3308
1443;3310
1433;3313
1468;3315
1506;3317
1536;3320
1516;3322
1473;3325
1464;3328
1477;3330
1475;3333
1460;3335
1508;3338
1533;3340
1536;3343
1531;3345
1485;3347
1436;3350
1414;3352
1408;3355
1409;3357
1437;3359
1496;3362
1544;3364
1545;3367
1548;3369
1532;3372
1494;3375
1481;3377
1500;3380
1483;3382
1448;3384
1460;3387
1499;3389
1496;3392
1472;3394
1460;3396
1460;3399
1458;3401
1476;3404
1505;3406
1509;3408
1474;3411
1473;3414
1464;3417
1455;3419
1448;3421
1459;3424
1450;3426
1430;3429
1411;3431
1413;3434
1445;3436
1495;3438
1529;3441
1524;3443
1525;3446
1507;3448
1476;3450
1474;3453
1482;3456
1474;3459
1451;3461
1434;3463
1458;3466
1482;3468
1499;3471
1507;3473
1531;3475
1523;3478
1473;3480
1448;3483
1445;3485
1465;3487
1462;3490
1474;3492
1495;3495
1506;3497
1503;3500
1482;3503
1450;3505
1453;3508
1481;3510
1489;3513
1458;3515
1428;3517
1443;3520
1485;3522
1541;3525
1537;3527
1491;3529
1463;3532
1469;3534
1473;3537
1450;3539
1437;3542
1445;3545
1450;3547
1516;3550
1546;3552
1543;3554
1494;3557
1449;3559
1422;3562
1423;3564
1474;3566
1519;3569
1525;3571
1539;3574
1511;3576
1465;3578
1466;3581
1471;3584
1451;3587
1420;3589
1405;3591
1446;3594
1468;3596
1462;3599
1475;3601
1474;3604
1480;3606
1479;3608
1459;3611
1484;3613
1499;3616
1473;3618
1425;3620
1406;3623
1409;3625
1420;3629
1429;3631
1424;3633
1417;3636
1408;3638
1414;3641
1464;3643
1491;3645
1500;3648
1537;3650
1555;3653
1521;3655
1483;3657
1460;3660
1456;3662
1467;3665
1464;3667
1469;3670
1516;3673
1516;3675
1482;3678
1471;3680
1508;3682
1514;3685
1492;3687
1440;3690
1411;3692
1437;3695
1497;3697
1497;3699
1472;3702
1445;3704
1451;3707
1455;3709
1444;3712
1433;3715
1462;3717
1514;3720
1500;3722
1450;3724
1433;3727
1426;3729
1443;3732
1462;3734
1489;3736
1497;3739
1473;3741
1460;3744
1460;3746
1458;3748
1454;3751
1454;3753
1466;3757
1467;3759
1492;3761
1540;3764
1550;3766
1516;3769
1467;3771
1485;3774
1511;3776
1494;3778
1454;3781
1432;3783
1425;3786
1454;3788
1480;3790
1505;3793
1497;3795
1479;3799
1454;3801
1464;3803
1467;3806
1456;3808
1479;3811
1503;3813
1495;3815
1509;3818
1537;3820
1546;3823
1540;3825
1494;3827
1467;3830
1454;3832
1486;3835
1496;3837
1471;3840
1457;3843
1446;3845
1455;3848
1480;3850
1517;3853
1509;3855
1470;3857
1455;3860
1459;3862
1471;3865
1471;3867
1467;3869
1451;3872
1437;3874
1431;3877
1450;3879
1465;3881
1480;3885
1479;3887
1487;3890
1493;3892
1503;3894
1533;3897
1543;3899
1506;3902
1483;3904
1489;3906
1512;3909
1501;3911
1489;3914
1488;3916
1505;3918
1497;3921
1468;3923
1441;3927
1446;3929
1471;3931
1480;3934
1469;3936
1480;3939
1506;3941
1531;3944
1533;3946
1519;3948
1506;3951
1476;3953
1471;3956
1464;3958
1453;3960
1444;3963
1438;3965
1433;3969
1456;3971
1487;3973
1489;3976
1470;3978
1446;3981
1438;3983
1471;3985
1512;3988
1520;3990
1511;3993
1491;3995
1469;3997
1457;4000
1481;4002
1505;4005
1496;4007
1509;4009
1531;4013
1523;4015
1498;4018
1485;4020
1489;4022
1489;4025
1481;4027
1486;4030
1489;4032
1474;4035
1479;4037
1497;4039
1534;4042
1536;4044
1511;4047
1471;4049
1457;4051
1494;4055
1506;4057
1487;4060
1453;4062
1475;4064
1485;4067
1487;4069
1476;4072
1472;4074
1475;4076
1477;4079
1474;4081
1468;4084
1481;4086
1486;4088
1475;4091
1457;4093
1512;4097
1534;4099
1526;4101
1490;4104
1462;4106
1473;4109
1487;4111
1516;4113
1506;4116
1475;4118
1470;4121
1472;4123
1495;4126
1515;4128
1502;4130
1474;4133
1489;4135
1581;4139
1596;4141
1542;4143
1473;4146
1435;4148
1432;4151
1436;4153
1440;4155
1448;4158
1470;4160
1472;4163
1455;4165
1430;4167
1427;4170
1442;4172
1470;4175
1481;4177
1508;4179
1551;4183
1535;4185
1510;4188
1487;4190
1462;4192
1448;4195
1451;4197
1460;4200
1487;4202
1504;4205
1499;4207
1482;4209
1475;4212
1489;4214
1532;4217
1574;4219
1557;4221
1506;4225
1470;4227
1442;4230
1435;4232
1478;4234
1498;4237
1503;4239
1496;4242
1497;4244
1513;4246
1514;4249
1491;4251
1464;4254
1478;4256
1507;4258
1549;4261
1558;4263
1529;4267
1472;4269
1434;4271
1433;4274
1455;4276
1472;4279
1471;4281
1468;4284
1475;4286
1507;4288
1516;4291
1523;4293
1500;4296
1490;4298
1489;4300
1517;4303
1525;4305
1520;4308
1506;4311
1518;4313
1521;4316
1486;4318
1463;4321
1452;4323
1472;4325
1487;4328
1465;4330
1434;4333
1420;4335
1414;4337
1437;4340
1453;4342
1470;4345
1454;4347
1430;4349
1435;4353
1445;4355
1444;4358
1453;4360
1466;4363
1493;4365
1523;4367
1534;4370
1506;4372
1474;4375
1469;4377
1472;4379
1469;4382
1467;4384
1486;4387
1492;4389
1489;4391
1493;4395
1529;4397
1531;4400
1492;4402
1452;4404
1438;4407
1429;4409
1447;4412
1459;4414
1446;4416
1444;4419
1462;4421
1462;4424
1450;4426
1441;4428
1451;4431
1479;4433
1507;4436
1497;4439
1527;4442
1520;4444
1509;4446
1534;4449
1545;4451
1505;4454
1462;4456
1440;4458
1455;4461
1482;4463
1484;4466
1466;4468
1454;4470
1493;4473
1565;4475
1555;4478
1495;4481
1457;4483
1444;4486
1467;4488
1464;4491
1439;4493
1424;4495
1442;4498
1468;4500
1501;4503
1494;4505
1481;4507
1480;4510
1460;4512
1443;4515
1451;4517
1460;4519
1470;4523
1470;4525
1455;4528
1446;4530
1457;4533
1517;4535
1564;4537
1544;4540
1513;4542
1476;4545
1461;4547
1452;4549
1440;4552
1436;4554
1444;4557
1443;4559
1453;4561
1488;4564
1515;4567
1514;4570
1480;4572
1460;4574
1454;4577
1479;4579
1503;4582
1506;4584
1497;4586
1461;4589
1430;4591
1417;4594
1423;4596
1421;4598
1437;4601
1445;4603
1473;4606
1495;4609
1513;4612
1522;4614
1482;4616
1448;4619
1461;4621
1470;4624
1461;4626
1475;4628
1477;4631
1504;4633
1519;4636
1503;4638
1467;4640
1457;4643
1464;4645
1485;4648
1489;4651
1489;4653
1481;4656
1451;4658
1462;4661
1479;4663
1494;4665
1472;4668
1441;4670
1428;4673
1421;4675
1423;4677
1479;4680
1513;4682
1486;4685
1438;4687
1413;4690
1401;4692
1419;4695
1435;4698
1441;4700
1441;4703
1445;4705
1451;4707
1459;4710
1472;4712
1484;4715
1480;4717
1478;4719
1512;4722
1527;4724
1505;4727
1487;4729
1477;4731
1466;4734
1501;4737
1523;4740
1507;4742
1491;4744
1471;4747
1461;4749
1482;4752
1515;4754
1509;4757
1463;4759
1418;4761
1432;4764
1476;4766
1498;4769
1480;4771
1442;4773
1441;4776
1452;4779
1446;4782
1425;4784
1426;4786
1443;4789
1449;4791
1446;4794
1469;4796
1492;4798
1466;4801
1435;4803
1422;4806
1468;4808
1511;4810
1515;4813
1482;4815
1453;4818
1429;4820
1455;4824
1473;4826
1454;4828
1449;4831
1470;4833
1482;4836
1464;4838
1456;4840
1469;4843
1474;4845
1469;4848
1451;4850
1457;4852
1493;4855
1501;4857
1488;4860
1467;4862
1447;4865
1465;4868
1484;4870
1494;4873
1492;4875
1468;4877
1450;4880
1467;4882
1479;4885
1487;4887
1466;4889
1437;4892
1423;4894
1447;4897
1469;4899
1457;4901
1440;4904
1466;4907
1473;4910
1462;4912
1474;4915
1485;4917
1487;4919
1471;4922
1436;4924
1425;4927
1440;4929
1444;4931
1436;4934
1422;4936
1414;4939
1468;4941
1508;4943
1516;4946
1498;4948
1484;4952
1498;4954
1515;4956
1531;4959
1511;4961
1465;4964
1434;4966
1424;4968
1445;4971
1472;4973
1502;4976
1477;4978
1437;4981
1412;4983
1418;4985
1460;4988
1466;4990
1451;4994
1461;4996
1480;4998
1493;5001
1481;5003
1447;5006
1438;5008
1491;5010
1503;5013
1470;5015
1430;5018
1408;5020
1417;5022
1470;5025
1539;5027
1540;5030
1494;5032
1438;5035
1416;5038
1433;5040
1467;5043
1484;5045
1489;5047
1472;5050
1437;5052
1411;5055
1401;5057
1415;5060
1482;5062
1521;5064
1523;5067
1478;5069
1440;5072
1462;5074
1499;5076
1506;5080
1486;5082
1443;5085
1428;5087
1445;5089
1462;5092
1470;5094
1475;5097
1499;5099
1513;5101
1512;5104
1476;5106
1431;5109
1404;5111
1395;5113
1401;5116
1400;5118
1398;5122
1429;5124
1472;5127
1473;5129
1461;5131
1479;5134
1475;5136
1448;5139
1431;5141
1440;5143
1480;5146
1488;5148
1454;5151
1431;5153
1434;5155
1462;5158
1475;5160
1482;5164
1480;5166
1475;5168
1469;5171
1504;5173
1544;5176
1519;5178
1482;5180
1449;5183
1461;5185
1459;5188
1437;5190
1433;5192
1456;5195
1479;5197
1481;5200
1466;5202
1486;5204
1526;5208
1549;5210
1512;5213
1463;5215
1473;5218
1514;5220
1546;5222
1527;5225
1477;5227
1426;5230
1411;5232
1459;5234
1492;5237
1474;5239
1448;5242
1457;5244
1468;5246
1487;5250
1510;5252
1492;5255
1466;5257
1431;5259
1414;5262
1408;5264
1415;5267
1423;5269
1433;5271
1480;5274
1521;5276
1505;5279
1460;5281
1434;5283
1420;5286
1421;5288
1424;5292
1439;5294
1450;5297
1464;5299
1495;5301
1502;5304
1497;5306
1500;5309
1525;5311
1568;5313
1568;5316
1544;5318
1499;5321
1457;5323
1437;5325
1430;5328
1440;5330
1459;5334
1469;5336
1458;5338
1465;5341
1480;5343
1484;5346
1486;5348
1481;5350
1484;5353
1500;5355
1510;5358
1510;5360
1500;5362
1521;5365
1532;5367
1537;5370
1565;5372
1561;5374
1513;5378
1476;5380
1455;5383
1447;5385
1466;5388
1472;5390
1456;5392
1439;5395
1445;5397
1471;5400
1483;5402
1489;5404
1463;5407
1439;5409
1435;5412
1444;5414
1485;5416
1493;5420
1479;5422
1458;5425
1434;5427
1433;5429
1481;5432
1520;5434
1518;5437
1498;5439
1502;5441
1514;5444
1521;5446
1531;5449
1536;5451
1520;5454
1482;5456
1466;5458
1482;5462
1495;5464
1490;5467
1470;5469
1492;5471
1535;5474
1542;5476
1510;5479
1481;5481
1479;5483
1509;5486
1515;5488
1474;5491
1417;5493
1388;5495
1378;5498
1380;5500
1387;5504
1405;5506
1426;5508
1435;5511
1442;5513
1461;5516
1482;5518
1492;5520
1474;5523
1452;5525
1454;5528
1461;5530
1465;5533
1487;5535
1519;5537
1535;5540
1593;5542
1617;5545
1577;5548
1512;5550
1477;5553
1450;5555
1447;5558
1476;5560
1486;5562
1474;5565
1468;5567
1454;5570
1455;5572
1466;5574
1491;5577
1516;5579
1504;5582
1486;5584
1481;5586
1480;5590
1489;5592
1482;5595
1471;5597
1460;5599
1440;5602
1433;5604
1474;5607
1556;5609
1581;5612
1568;5614
1520;5616
1472;5619
1462;5621
1489;5624
1487;5626
1473;5628
1477;5632
1505;5634
1519;5637
1515;5639
1483;5641
1473;5644
1566;5646
1617;5649
1625;5651
1602;5653
1559;5656
1502;5658
1494;5661
1507;5663
1482;5665
1470;5668
1463;5670
1458;5673
1457;5676
1413;5678
1381;5681
1358;5683
1366;5686
1410;5688
1426;5690
1415;5693
1393;5695
1386;5698
1434;5700
1480;5703
1475;5705
1472;5707
1505;5710
1497;5712
1457;5715
1423;5718
1405;5720
1430;5723
1446;5725
1435;5728
1427;5730
1456;5732
1493;5735
1491;5737
1463;5740
1439;5742
1433;5744
1470;5747
1504;5749
1495;5752
1460;5754
1433;5756
1430;5760
1437;5762
1459;5765
1470;5767
1486;5770
1517;5772
1564;5774
1555;5777
1542;5779
1509;5782
1518;5784
1519;5786
1494;5789
1463;5791
1465;5794
1466;5796
1457;5798
1443;5801
1433;5804
1437;5807
1439;5809
1450;5811
1491;5814
1513;5816
1506;5819
1502;5821
1519;5823
1532;5826
1566;5828
1616;5831
1589;5833
1535;5835
1474;5838
1435;5840
1429;5843
1457;5846
1466;5849
1468;5851
1464;5853
1463;5856
1460;5858
1457;5861
1464;5863
1498;5865
1509;5868
1508;5870
1492;5873
1477;5875
1455;5877
1466;5880
1536;5882
1530;5885
1496;5888
1469;5890
1470;5893
1540;5895
1574;5898
1560;5900
1506;5902
1458;5905
1438;5907
1456;5910
1500;5912
1524;5914
1507;5917
1480;5919
1478;5922
1513;5924
1535;5927
1562;5929
1535;5932
1488;5935
1464;5937
1474;5940
1519;5942
1524;5944
1493;5947
1463;5949
1463;5952
1487;5954
1496;5956
1486;5959
1480;5961
1499;5964
1562;5966
1556;5968
1511;5971
1464;5974
1446;5977
1447;5979
1458;5981
1488;5984
1512;5986
1518;5989
1514;5991
1520;5994
1553;5996
1534;5998
1492;6001
1471;6003
1478;6006
1488;6008
1481;6010
1484;6013
1507;6016
1529;6019
1510;6021
1474;6023
1455;6026
1464;6028
1514;6031
1558;6033
1536;6035
1487;6038
1445;6040
1437;6043
1479;6045
1536;6047
1527;6050
1508;6052
1483;6055
1440;6057
1414;6060
1411;6063
1423;6065
1452;6068
1529;6070
1605;6073
1642;6075
1611;6077
1589;6080
1546;6082
1510;6085
1531;6087
1543;6089
1572;6092
1567;6094
1546;6097
1502;6099
1447;6102
1420;6105
1408;6107
1400;6110
1401;6112
1433;6114
1457;6117
1455;6119
1435;6122
1426;6124
1422;6126
1430;6129
1452;6131
1495;6134
1480;6136
1445;6138
1432;6141
1445;6144
1468;6147
1475;6149
1488;6152
1490;6154
1474;6156
1488;6159
1515;6161
1519;6164
1491;6166
1480;6168
1476;6171
1478;6173
1478;6176
1492;6178
1484;6180
1475;6183
1457;6185
1438;6189
1456;6191
1488;6193
1520;6196
1529;6198
1512;6201
1496;6203
1493;6205
1476;6208
1459;6210
1454;6213
1470;6215
1516;6218
1545;6220
1541;6222
1493;6225
1466;6227
1462;6231
1457;6233
1453;6235
1447;6238
1450;6240
1483;6243
1523;6245
1523;6247
1508;6250
1567;6252
1581;6255
1537;6257
1491;6259
1469;6262
1458;6264
1460;6267
1488;6269
1485;6272
1478;6275
1479;6277
1501;6280
1548;6282
1557;6285
1529;6287
1496;6289
1479;6292
1468;6294
1454;6297
1440;6299
1443;6301
1481;6304
1496;6306
1493;6309
1536;6311
1563;6313
1558;6317
1549;6319
1532;6322
1509;6324
1510;6326
1560;6329
1552;6331
1524;6334
1498;6336
1489;6338
1512;6341
1534;6343
1540;6346
1508;6348
1475;6351
1469;6353
1481;6355
1481;6359
1475;6361
1500;6364
1511;6366
1488;6368
1444;6371
1419;6373
1420;6376
1440;6378
1486;6380
1485;6383
1469;6385
1463;6388
1461;6390
1476;6392
1475;6395
1458;6397
1462;6401
1481;6403
1488;6405
1483;6408
1474;6410
1465;6413
1473;6415
1523;6417
1599;6420
1590;6422
1552;6425
1544;6427
1530;6430
1498;6432
1471;6434
1463;6437
1475;6439
1492;6443
1515;6445
1529;6447
1559;6450
1567;6452
1547;6455
1529;6457
1530;6459
1542;6462
1516;6464
1484;6467
1466;6469
1457;6471
1520;6474
1575;6476
1562;6479
1521;6481
1471;6483
1445;6487
1448;6489
1485;6492
1502;6494
1491;6496
1461;6499
1456;6501
1532;6504
1557;6506
1549;6508
1521;6511
1494;6513
1483;6516
1492;6518
1487;6520
1473;6523
1484;6525
1529;6529
1561;6531
1559;6533
1534;6536
1488;6538
1448;6541
1435;6543
1453;6546
1474;6548
1501;6550
1510;6553
1503;6555
1505;6558
1481;6560
1466;6562
1469;6565
1464;6567
1454;6571
1441;6573
1440;6575
1453;6578
1463;6580
1460;6583
1459;6585
1473;6587
1479;6590
1471;6592
1465;6595
1475;6597
1483;6599
1481;6602
1495;6604
1507;6607
1519;6609
1530;6611
1532;6615
1574;6617
1610;6620
1592;6622
1561;6625
1529;6627
1503;6629
1516;6632
1560;6634
1580;6637
1546;6639
1499;6641
1489;6644
1494;6646
1487;6649
1495;6651
1523;6653
1530;6657
1523;6659
1547;6662
1597;6664
1609;6666
1561;6669
1518;6671
1477;6674
1462;6676
1464;6678
1459;6681
1453;6683
1452;6686
1448;6688
1453;6690
1482;6693
1518;6695
1536;6699
1524;6701
1509;6703
1527;6706
1517;6708
1502;6711
1510;6713
1540;6716
1572;6718
1573;6720
1554;6723
1510;6725
1476;6728
1468;6730
1467;6732
1488;6735
1508;6737
1513;6740
1502;6743
1494;6745
1503;6748
1505;6750
1524;6753
1559;6755
1578;6757
1596;6760
1588;6762
1550;6765
1507;6767
1487;6769
1477;6772
1481;6774
1520;6777
1536;6779
1530;6782
1526;6785
1526;6787
1541;6790
1549;6792
1566;6795
1562;6797
1551;6799
1547;6802
1530;6804
1543;6807
1589;6809
1584;6811
1560;6814
1531;6816
1516;6819
1518;6821
1498;6823
1487;6827
1467;6829
1464;6832
1493;6834
1513;6836
1508;6839
1497;6841
1498;6844
1505;6846
1494;6849
1493;6851
1501;6853
1516;6856
1548;6858
1533;6861
1503;6863
1488;6865
1509;6868
1525;6871
1527;6874
1509;6876
1505;6878
1561;6881
1587;6883
1572;6886
1542;6888
1521;6890
1531;6893
1562;6895
1589;6898
1594;6900
1563;6902
1537;6905
1506;6907
1498;6910
1497;6913
1514;6915
1517;6918
1491;6920
1472;6923
1477;6925
1499;6928
1518;6930
1506;6932
1481;6935
1497;6937
1508;6940
1527;6942
1545;6944
1531;6947
1528;6949
1510;6952
1485;6955
1483;6957
1489;6960
1497;6962
1491;6965
1486;6967
1478;6969
1495;6972
1536;6974
1565;6977
1562;6979
1536;6981
1499;6984
1478;6986
1520;6989
1552;6991
1548;6993
1526;6996
1499;6999
1492;7002
1508;7004
1535;7007
1539;7009
1537;7011
1511;7014
1481;7016
1497;7019
1532;7021
1533;7023
1487;7026
1457;7028
1446;7031
1476;7033
1576;7035
1599;7038
1563;7041
1513;7044
1497;7046
1492;7048
1475;7051
1462;7053
1462;7056
1485;7058
1508;7060
1528;7063
1538;7065
1554;7068
1550;7070
1568;7073
1568;7075
1527;7077
1494;7080
1487;7083
1486;7086
1491;7088
1487;7090
1482;7093
1491;7095
1504;7098
1512;7100
1513;7102
1512;7105
1538;7107
1553;7110
1533;7112
1476;7114
1441;7117
1427;7119
1438;7122
1463;7124
1486;7127
1533;7130
1576;7132
1555;7135
1526;7137
1496;7139
1503;7142
1500;7144
1466;7147
1433;7149
1421;7152
1435;7154
1468;7156
1510;7159
1552;7161
1557;7164
1531;7166
1504;7169
1484;7172
1467;7174
1458;7177
1459;7179
1468;7181
1469;7184
1465;7186
1460;7189
1468;7191
1482;7193
1492;7196
1514;7198
1540;7201
1545;7203
1566;7206
1618;7208
1623;7211
1584;7214
1547;7216
1515;7219
1509;7221
1498;7223
1496;7226
1518;7228
1532;7231
1542;7233
1538;7235
1533;7238
1550;7240
1556;7243
1547;7245
1552;7247
1571;7250
1550;7252
1525;7256
1506;7258
1482;7260
1459;7263
1447;7265
1444;7268
1443;7270
1492;7272
1531;7275
1527;7277
1505;7280
1473;7282
1470;7285
1476;7287
1488;7289
1509;7292
1515;7294
1512;7298
1530;7300
1578;7302
1607;7305
1567;7307
1500;7310
1461;7312
1439;7314
1423;7317
1418;7319
1424;7322
1463;7324
1510;7326
1518;7329
1520;7331
1520;7334
1545;7336
1577;7339
1557;7342
1510;7344
1472;7347
1457;7349
1466;7352
1498;7354
1543;7356
1553;7359
1558;7361
1538;7364
1536;7366
1570;7368
1572;7371
1529;7373
1478;7376
1465;7378
1484;7380
1496;7384
1503;7386
1552;7389
1586;7391
1580;7393
1547;7396
1495;7398
1467;7401
1489;7403
1568;7405
1593;7408
1557;7410
1496;7413
1461;7415
1451;7417
1465;7420
1478;7422
1466;7426
1458;7428
1469;7431
1478;7433
1485;7435
1525;7438
1571;7440
1561;7443
1528;7445
1527;7447
1512;7450
1489;7452
1499;7455
1519;7457
1519;7459
1514;7462
1495;7464
1468;7468
1444;7470
1433;7472
1441;7475
1452;7477
1458;7480
1459;7482
1469;7484
1468;7487
1443;7489
1427;7492
1422;7494
1441;7497
1461;7499
1496;7501
1556;7504
1559;7506
1555;7510
1570;7512
1577;7514
1570;7517
1542;7519
1507;7522
1482;7524
1480;7526
1474;7529
1458;7531
1453;7534
1464;7536
1486;7538
1524;7541
1542;7543
1545;7546
1512;7548
1501;7550
1506;7554
1548;7556
1551;7559
1509;7561
1465;7564
1456;7566
1493;7568
1506;7571
1485;7573
1449;7576
1438;7578
1449;7580
1481;7583
1494;7585
1480;7588
1464;7590
1489;7592
1496;7596
1476;7598
1503;7601
1563;7603
1586;7605
1583;7608
1542;7610
1496;7613
1473;7615
1468;7617
1470;7620
1470;7622
1458;7625
1459;7627
1460;7630
1446;7632
1431;7634
1432;7638
1474;7640
1539;7643
1547;7645
1526;7647
1508;7650
1497;7652
1505;7655
1513;7657
1511;7659
1476;7662
1449;7664
1434;7667
1429;7669
1438;7671
1473;7674
1498;7676
1511;7680
1514;7682
1500;7684
1482;7687
1470;7689
1463;7692
1452;7694
1455;7697
1469;7699
1486;7701
1495;7704
1507;7706
1527;7709
1552;7711
1549;7713
1524;7716
1498;7718
1491;7721
1484;7724
1495;7726
1513;7729
1517;7731
1537;7734
1567;7736
1563;7738
1560;7741
1547;7743
1559;7746
1576;7748
1600;7750
1568;7753
1514;7755
1483;7758
1472;7760
1462;7762
1470;7766
1486;7768
1482;7771
1472;7773
1511;7776
1552;7778
1562;7780
1517;7783
1480;7785
1488;7788
1498;7790
1484;7792
1483;7795
1473;7797
1459;7800
1449;7802
1455;7804
1463;7808
1471;7810
1488;7813
1510;7815
1525;7817
1569;7820
1570;7822
1556;7825
1537;7827
1542;7829
1530;7832
1507;7834
1490;7837
1505;7839
1537;7842
1561;7844
1560;7846
1530;7849
1511;7852
1489;7855
1525;7857
1529;7859
1499;7862
1482;7864
1484;7867
1495;7869
1496;7871
1508;7874
1516;7876
1503;7879
1503;7881
1510;7883
1515;7886
1508;7888
1544;7891
1587;7894
1558;7896
1522;7899
1499;7901
1482;7904
1463;7906
1491;7909
1506;7911
1495;7913
1497;7916
1513;7918
1536;7921
1576;7923
1587;7925
1555;7928
1505;7930
1460;7933
1460;7936
1480;7938
1509;7941
1532;7943
1504;7946
1489;7948
1500;7950
1487;7953
1477;7955
1483;7958
1503;7960
1495;7962
1471;7965
1456;7967
1448;7970
1478;7972
1521;7975
1542;7977
1535;7980
1501;7983
1467;7985
1453;7988
1480;7990
1497;7992
1486;7995
1474;7997
1469;8000
1479;8002
1509;8004
1530;8007
1543;8009
1531;8012
1521;8014
1545;8016
1535;8019
1521;8022
1506;8025
1488;8027
1470;8029
1463;8032
1471;8034
1460;8037
1451;8039
1477;8041
1486;8044
1497;8046
1520;8049
1541;8051
1555;8054
1543;8056
1512;8058
1482;8061
1468;8064
1484;8067
1494;8069
1483;8071
1487;8074
1497;8076
1508;8079
1533;8081
1558;8083
1574;8086
1539;8088
1487;8091
1456;8093
1457;8095
1479;8098
1483;8100
1478;8103
1473;8105
1455;8108
1443;8111
1453;8113
1472;8116
1512;8118
1528;8120
1531;8123
1510;8125
1487;8128
1475;8130
1489;8133
1497;8135
1486;8137
1497;8140
1582;8142
1590;8145
1570;8147
1539;8150
1525;8153
1505;8155
1502;8158
1501;8160
1496;8162
1536;8165
1542;8167
1508;8170
1511;8172
1524;8174
1501;8177
1451;8179
1413;8182
1396;8184
1394;8186
1413;8189
1430;8192
1467;8195
1499;8197
1508;8199
1505;8202
1487;8204
1481;8207
1503;8209
1506;8212
1524;8214
1509;8216
1467;8219
1439;8221
1429;8224
1421;8226
1462;8228
1503;8231
1541;8233
1535;8237
1524;8239
1561;8241
1567;8244
1525;8246
1484;8249
1473;8251
1481;8253
1501;8256
1519;8258
1512;8261
1483;8263
1481;8265
1490;8268
1472;8270
1497;8273
1527;8275
1518;8278
1477;8281
1436;8283
1416;8286
1418;8288
1427;8291
1436;8293
1448;8295
1444;8298
1459;8300
1473;8303
1469;8305
1450;8307
1459;8310
1470;8312
1523;8315
1557;8317
1535;8320
1518;8323
1525;8325
1513;8328
1488;8330
1454;8332
1437;8335
1441;8337
1472;8340
1494;8342
1497;8344
1471;8347
1490;8349
1506;8352
1493;8354
1474;8357
1466;8359
1486;8361
1546;8365
1577;8367
1575;8370
1537;8372
1492;8374
1482;8377
1499;8379
1542;8382
1554;8384
1554;8386
1509;8389
1465;8391
1442;8394
1420;8396
1412;8398
1489;8401
1608;8403
1636;8407
1594;8409
1513;8411
1449;8414
1425;8416
1415;8419
1426;8421
1439;8423
1469;8426
1517;8428
1551;8431
1586;8433
1580;8436
1537;8438
1494;8440
1513;8443
1531;8445
1518;8449
1477;8451
1469;8453
1482;8456
1485;8458
1476;8461
1474;8463
1459;8465
1465;8468
1468;8470
1455;8473
1458;8475
1486;8477
1504;8480
1500;8482
1501;8485
1516;8487
1510;8489
1510;8493
1523;8495
1518;8498
1512;8500
1519;8502
1511;8505
1492;8507
1525;8510
1576;8512
1576;8515
1549;8517
1524;8519
1495;8522
1459;8524
1457;8527
1477;8529
1484;8531
1474;8535
1483;8537
1530;8540
1553;8542
1529;8544
1503;8547
1472;8549
1460;8552
1481;8554
1479;8556
1477;8559
1483;8561
1476;8564
1462;8566
1455;8568
1458;8571
1464;8573
1461;8577
1464;8579
1477;8581
1522;8584
1571;8586
1575;8589
1536;8591
1513;8594
1505;8596
1496;8598
1485;8601
1484;8603
1499;8606
1527;8608
1523;8610
1500;8613
1512;8615
1581;8619
1577;8621
1527;8623
1502;8626
1483;8628
1469;8631
1445;8633
1432;8635
1427;8638
1428;8640
1429;8643
1427;8645
1453;8647
1539;8650
1615;8652
1593;8655
1524;8657
1473;8660
1474;8663
1468;8665
1449;8668
1445;8670
1460;8673
1466;8675
1466;8677
1493;8680
1507;8682
1509;8685
1546;8687
1543;8689
1520;8692
1498;8694
1539;8697
1543;8699
1522;8701
1510;8705
1500;8707
1490;8710
1495;8712
1493;8714
1486;8717
1465;8719
1458;8722
1475;8724
1491;8726
1490;8729
1472;8731
1446;8734
1452;8736
1477;8739
1487;8741
1479;8743
1469;8747
1455;8749
1454;8752
1493;8754
1539;8756
1539;8759
1519;8761
1501;8764
1501;8766
1492;8768
1480;8771
1469;8773
1460;8776
1468;8778
1466;8780
1461;8783
1461;8785
1453;8788
1455;8791
1469;8793
1498;8796
1497;8798
1479;8801
1532;8803
1558;8806
1527;8808
1481;8810
1465;8813
1457;8815
1442;8818
1434;8820
1445;8822
1502;8825
1564;8827
1538;8830
1494;8833
1447;8835
1433;8838
1438;8840
1453;8843
1468;8845
1476;8847
1475;8850
1472;8852
1513;8855
1550;8857
1588;8859
1589;8862
1542;8864
1479;8867
1451;8869
1456;8871
1461;8875
1466;8877
1465;8880
1487;8882
1493;8885
1485;8887
1500;8889
1513;8892
1514;8894
1514;8897
1498;8899
1477;8901
1473;8904
1469;8906
1456;8909
1438;8911
1431;8913
1430;8916
1426;8919
1421;8922
1427;8924
1463;8926
1488;8929
1496;8931
1486;8934
1478;8936
1478;8938
1512;8941
1576;8943
1605;8946
1576;8948
1520;8951
1467;8953
1447;8955
1460;8958
1485;8961
1503;8964
1487;8966
1464;8968
1446;8971
1455;8973
1453;8976
1447;8978
1466;8980
1502;8983
1531;8985
1532;8988
1510;8990
1486;8992
1465;8995
1461;8997
1475;9000
1477;9003
1473;9005
1529;9008
1556;9010
1561;9013
1542;9015
1501;9017
1467;9020
1485;9022
1504;9025
1498;9027
1481;9030
1476;9032
1460;9034
1437;9037
1423;9039
1417;9042
1418;9044
1425;9047
1455;9050
1483;9052
1499;9055
1493;9057
1513;9059
1527;9062
1523;9064
1532;9067
1519;9069
1489;9071
1484;9074
1490;9076
1484;9079
1465;9081
1452;9083
1446;9086
1451;9089
1461;9092
1472;9094
1479;9096
1511;9099
1602;9101
1612;9104
1592;9106
1594;9109
1563;9111
1514;9113
1482;9116
1457;9118
1438;9121
1425;9123
1429;9125
1439;9128
1448;9131
1454;9134
1478;9136
1565;9138
1618;9141
1599;9143
1526;9146
1456;9148
1424;9150
1428;9153
1454;9155
1481;9158
1482;9160
1468;9162
1444;9165
1432;9167
1424;9170
1452;9172
1483;9176
1483;9178
1465;9180
1451;9183
1495;9185
1557;9188
1543;9190
1501;9192
1476;9195
1459;9197
1461;9200
1478;9202
1489;9204
1476;9207
1453;9209
1444;9212
1466;9214
1488;9217
1509;9220
1548;9222
1544;9225
1573;9227
1565;9229
1536;9232
1492;9234
1464;9237
1443;9239
1437;9242
1446;9244
1457;9246
1500;9249
1528;9251
1510;9254
1500;9256
1487;9259
1483;9262
1509;9264
1514;9267
1498;9269
1484;9271
1491;9274
1481;9276
1462;9279
1445;9281
1432;9283
1418;9286
1414;9288
1425;9291
1452;9293
1469;9295
1477;9298
1487;9300
1513;9304
1538;9306
1553;9308
1570;9311
1559;9313
1550;9316
1520;9318
1490;9321
1488;9323
1475;9325
1452;9328
1444;9330
1459;9333
1479;9335
1508;9337
1522;9340
1511;9342
1477;9346
1445;9348
1452;9350
1480;9353
1486;9355
1462;9358
1433;9360
1420;9362
1411;9365
1443;9367
1492;9370
1510;9372
1502;9375
1464;9377
1442;9379
1444;9382
1445;9384
1447;9388
1468;9390
1483;9392
1471;9395
1451;9397
1468;9400
1493;9402
1507;9404
1500;9407
1558;9409
1591;9412
1567;9414
1499;9416
1459;9419
1448;9421
1454;9424
1483;9426
1502;9428
1497;9432
1487;9434
1493;9437
1486;9439
1489;9442
1510;9444
1500;9446
1471;9449
1443;9451
1432;9454
1431;9456
1459;9458
1511;9461
1535;9463
1524;9466
1511;9468
1537;9470
1541;9474
1524;9476
1493;9479
1497;9481
1557;9483
1584;9486
1545;9488
1483;9491
1446;9493
1419;9495
1414;9498
1430;9500
1478;9503
1507;9505
1504;9508
1468;9510
1460;9512
1486;9516
1505;9518
1503;9521
1472;9523
1454;9525
1465;9528
1452;9530
1446;9533
1459;9535
1489;9537
1484;9540
1468;9542
1462;9545
1453;9547
1454;9549
1465;9552
1469;9554
1496;9558
1544;9560
1560;9562
1530;9565
1486;9567
1451;9570
1448;9572
1472;9575
1495;9577
1502;9579
1514;9582
1521;9584
1499;9587
1477;9589
1469;9591
1479;9594
1482;9596
1462;9600
1433;9602
1421;9604
1448;9607
1479;9609
1521;9612
1529;9614
1520;9616
1524;9619
1532;9621
1537;9624
1522;9626
1494;9628
1493;9631
1488;9633
1473;9636
1456;9638
1490;9640
1541;9644
1518;9646
1487;9649
1472;9651
1480;9654
1542;9656
1573;9658
1552;9661
1523;9663
1489;9666
1456;9668
1428;9670
1410;9673
1402;9675
1409;9678
1442;9680
1473;9682
1479;9686
1485;9688
1534;9691
1544;9693
1527;9695
1506;9698
1481;9700
1450;9703
1445;9705
1486;9707
1521;9710
1543;9712
1522;9715
1485;9717
1461;9719
1484;9722
1507;9724
1504;9728
1470;9730
1446;9733
1430;9735
1446;9737
1469;9740
1510;9742
1489;9745
1438;9747
1425;9749
1452;9752
1499;9754
1524;9757
1502;9759
1464;9761
1433;9764
1406;9766
1393;9769
1406;9772
1460;9774
1487;9777
1481;9779
1449;9782
1450;9784
1498;9786
1511;9789
1500;9791
1475;9794
1455;9796
1503;9799
1526;9801
1513;9803
1494;9806
1500;9808
1493;9811
1472;9814
1455;9816
1443;9819
1442;9821
1430;9824
1426;9826
1459;9828
1494;9831
1503;9833
1481;9836
1442;9838
1423;9840
1413;9843
1413;9845
1432;9848
1481;9850
1513;9852
1511;9856
1512;9858
1536;9861
1526;9863
1478;9865
1451;9868
1438;9870
1462;9873
1507;9875
1529;9878
1522;9880
1510;9882
1508;9885
1480;9887
1443;9890
1404;9892
1385;9894
1377;9897
1387;9900
1399;9903
1423;9905
1442;9907
1459;9910
1524;9912
1609;9915
1610;9917
1570;9919
1514;9922
1475;9924
1447;9927
1430;9929
1481;9932
1527;9934
1535;9936
1507;9939
1492;9942
1491;9945
1515;9947
1568;9949
1565;9952
1514;9954
1462;9957
1434;9959
1420;9961
1439;9964
1473;9966
1484;9969
1476;9971
1471;9973
1481;9976
1477;9978
1455;9981
1457;9984
1464;9986
1487;9989
1502;9991
1503;9994
1513;9996
1499;9999
1494;10001
1478;10003
1462;10006
1469;10008
1501;10011
1510;10013
1488;10016
1486;10018
1499;10021
1500;10023
1482;10025
1457;10029
1449;10031
1465;10034
1480;10036
1466;10039
1450;10041
1452;10044
1496;10046
1520;10049
1502;10051
1466;10054
1443;10056
1434;10058
1431;10061
1431;10063
1444;10066
1487;10068
1529;10072
1577;10074
1641;10077
1617;10079
1552;10082
1499;10084
1473;10086
1451;10089
1487;10091
1522;10094
1515;10096
1492;10099
1473;10101
1498;10104
1525;10106
1521;10109
1488;10112
1460;10114
1508;10117
1540;10119
1520;10122
1488;10124
1469;10127
1496;10129
1511;10132
1502;10134
1485;10137
1465;10139
1468;10142
1482;10144
1467;10146
1478;10149
1512;10151
1529;10155
1554;10157
1561;10160
1542;10162
1502;10165
1472;10167
1451;10170
1463;10172
1489;10174
1479;10177
1465;10179
1493;10182
1521;10184
1536;10187
1551;10189
1557;10192
1546;10194
1517;10198
1485;10200
1448;10202
1436;10205
1452;10207
1463;10210
1472;10212
1475;10215
1460;10217
1435;10220
1431;10222
1457;10225
1468;10227
1475;10229
1475;10232
1479;10234
1551;10237
1575;10240
1537;10243
1506;10245
1503;10248
1502;10250
1487;10253
1476;10255
1463;10258
1457;10260
1495;10262
1530;10265
1553;10267
1558;10270
1543;10272
1516;10275
1492;10277
1466;10280
1448;10283
1456;10286
1476;10288
1494;10290
1513;10293
1525;10295
1531;10298
1550;10300
1528;10303
1475;10305
1439;10308
1472;10310
1524;10313
1555;10315
1542;10317
1518;10320
1502;10322
1486;10326
1473;10328
1460;10331
1441;10333
1421;10336
1408;10338
1404;10341
1428;10343
1446;10346
1444;10348
1495;10350
1539;10353
1533;10355
1509;10358
1487;10360
1476;10363
1472;10365
1472;10369
1469;10371
1462;10374
1454;10376
1488;10378
1507;10381
1501;10383
1472;10386
1456;10388
1454;10391
1470;10393
1484;10396
1480;10398
1514;10401
1537;10403
1523;10405
1512;10408
1531;10411
1534;10414
1551;10416
1529;10419
1494;10421
1463;10424
1446;10426
1433;10429
1426;10431
1442;10434
1472;10436
1484;10438
1491;10441
1517;10443
1547;10446
1543;10448
1522;10451
1543;10454
1538;10457
1514;10459
1500;10462
1490;10464
1491;10466
1500;10469
1498;10471
1507;10474
1524;10476
1524;10479
1513;10481
1520;10484
1524;10486
1506;10489
1520;10491
1524;10493
1507;10497
1484;10499
1466;10502
1453;10504
1445;10507
1461;10509
1485;10512
1493;10514
1486;10517
1467;10519
1459;10521
1473;10524
1489;10526
1516;10529
1508;10531
1506;10534
1511;10536
1517;10540
1530;10542
1534;10545
1516;10547
1499;10550
1483;10552
1507;10554
1543;10557
1534;10559
1516;10562
1580;10564
1604;10567
1561;10569
1500;10572
1454;10574
1455;10577
1478;10579
1494;10582
1491;10585
1473;10587
1455;10590
1455;10592
1469;10595
1490;10597
1511;10600
1515;10602
1514;10605
1504;10607
1489;10609
1485;10612
1482;10614
1469;10617
1457;10619
1451;10622
1452;10625
1471;10628
1517;10630
1532;10633
1552;10635
1559;10637
1523;10640
1483;10642
1451;10645
1486;10647
1537;10650
1556;10652
1533;10655
1512;10657
1499;10660
1514;10662
1515;10665
1501;10668
1494;10670
1497;10673
1504;10675
1522;10678
1535;10680
1530;10683
1509;10685
1497;10688
1475;10690
1455;10693
1441;10695
1464;10697
1496;10700
1494;10702
1490;10705
1494;10707
1502;10711
1485;10713
1460;10716
1452;10718
1451;10721
1459;10723
1487;10725
1533;10728
1543;10730
1540;10733
1530;10735
1506;10738
1480;10740
1473;10743
1505;10745
1508;10748
1501;10750
1523;10754
1543;10756
1525;10758
1488;10761
1498;10763
1517;10766
1502;10768
1486;10771
1504;10773
1537;10776
1525;10778
1494;10781
1485;10783
1473;10785
1445;10788
1453;10790
1491;10793
1524;10796
1529;10799
1511;10801
1484;10804
1462;10806
1493;10809
1538;10811
1541;10813
1532;10816
1543;10818
1544;10821
1522;10823
1540;10826
1527;10828
1490;10831
1442;10833
1418;10836
1413;10839
1422;10841
1432;10844
1442;10846
1446;10849
1488;10851
1513;10854
1512;10856
1518;10859
1550;10861
1539;10864
1499;10866
1466;10869
1464;10871
1459;10873
1452;10876
1459;10878
1500;10882
1499;10884
1478;10887
1461;10889
1465;10892
1482;10894
1491;10897
1484;10899
1483;10901
1480;10904
1476;10906
1471;10909
1471;10911
1473;10914
1468;10916
1540;10919
1558;10921
1547;10925
1524;10927
1521;10929
1515;10932
1503;10934
1497;10937
1484;10939
1501;10942
1562;10944
1608;10947
1574;10949
1512;10952
1520;10954
1520;10957
1484;10959
1451;10961
1489;10964
1544;10967
1547;10970
1504;10972
1455;10975
1439;10977
1459;10980
1488;10982
1529;10985
1535;10987
1529;10989
1520;10992
1506;10994
1489;10997
1472;10999
1453;11002
1430;11004
1430;11008
1452;11010
1465;11013
1518;11015
1552;11017
1553;11020
1562;11022
1527;11025
1497;11027
1520;11030
1521;11032
1496;11035
1472;11037
1439;11040
1421;11042
1462;11045
1551;11047
1565;11049
1524;11053
1523;11055
1538;11058
1534;11060
1491;11063
1443;11065
1425;11068
1442;11070
1513;11073
1528;11075
1526;11077
1518;11080
1488;11082
1453;11085
1441;11087
1471;11090
1526;11092
1537;11096
1512;11098
1500;11101
1522;11103
1527;11105
1508;11108
1467;11110
1449;11113
1473;11115
1510;11118
1527;11120
1518;11123
1496;11125
1461;11128
1449;11130
1487;11132
1516;11136
1525;11138
1518;11141
1497;11143
1492;11146
1510;11148
1519;11151
1550;11153
1609;11156
1593;11158
1549;11161
1508;11163
1492;11165
1483;11168
1469;11170
1471;11173
1527;11175
1552;11179
1508;11181
1448;11184
1436;11186
1451;11189
1474;11191
1484;11193
1487;11196
1483;11198
1476;11201
1475;11203
1482;11206
1496;11208
1499;11211
1523;11213
1562;11216
1575;11218
1558;11220
1533;11224
1551;11226
1536;11229
1502;11231
1479;11234
1464;11236
1474;11239
1489;11241
1507;11244
1506;11246
1495;11249
1473;11251
1508;11253
1560;11256
1575;11258
1572;11261
1549;11264
1513;11267
1476;11269
1436;11272
1426;11274
1454;11277
1456;11279
1463;11281
1472;11284
1494;11286
1500;11289
1499;11291
1517;11294
1528;11296
1515;11299
1529;11301
1544;11304
1531;11307
1506;11309
1463;11312
1448;11314
1456;11317
1467;11319
1477;11322
1510;11324
1532;11327
1526;11329
1539;11332
1576;11334
1553;11336
1495;11339
1464;11341
1445;11344
1446;11346
1456;11350
1512;11352
1569;11355
1565;11357
1535;11360
1499;11362
1471;11365
1456;11367
1449;11369
1451;11372
1454;11374
1469;11377
1500;11379
1526;11382
1549;11384
1534;11387
1489;11389
1441;11393
1426;11395
1418;11397
1416;11400
1415;11402
1419;11405
1428;11407
1468;11410
1528;11412
1543;11415
1554;11417
1555;11420
1542;11422
1549;11424
1547;11427
1538;11429
1518;11432
1538;11435
1565;11438
1570;11440
1543;11443
1511;11445
1520;11448
1562;11450
1586;11453
1578;11455
1550;11457
1505;11460
1479;11462
1480;11465
1529;11467
1580;11470
1577;11472
1528;11475
1475;11478
1459;11481
1501;11483
1505;11485
1487;11488
1472;11490
1462;11493
1454;11495
1449;11498
1438;11500
1443;11503
1475;11505
1496;11508
1520;11510
1564;11512
1647;11515
1649;11517
1591;11521
1521;11523
1487;11526
1467;11528
1468;11531
1488;11533
1492;11536
1495;11538
1496;11541
1515;11543
1531;11545
1525;11548
1535;11550
1534;11553
1514;11555
1496;11558
1554;11560
1606;11564
1611;11566
1581;11569
1527;11571
1478;11573
1493;11576
1532;11578
1537;11581
1508;11583
1476;11586
1453;11588
1437;11591
1452;11593
1476;11596
1481;11598
1483;11600
1502;11603
1520;11606
1510;11609
1504;11611
1536;11614
1568;11616
1611;11619
1614;11621
1581;11624
1540;11626
1497;11628
1484;11631
1493;11633
1498;11636
1499;11638
1481;11641
1464;11643
1466;11646
1527;11649
1562;11652
1558;11654
1545;11657
1536;11659
1560;11661
1565;11664
1546;11666
1500;11669
1496;11671
1536;11674
1550;11676
1529;11679
1517;11681
1509;11684
1485;11686
1464;11688
1439;11692
1448;11694
1477;11697
1488;11699
1496;11702
1486;11704
1481;11707
1476;11709
1466;11712
1460;11714
1460;11716
1478;11719
1477;11721
1486;11724
1515;11726
1576;11729
1582;11731
1555;11735
1516;11737
1488;11740
1462;11742
1442;11744
1451;11747
1463;11749
1465;11752
1494;11754
1539;11757
1562;11759
1550;11762
1517;11764
1498;11767
1508;11769
1561;11772
1584;11774
1561;11777
1533;11780
1498;11782
1476;11785
1469;11787
1529;11790
1604;11792
1600;11795
1536;11797
1474;11800
1449;11802
1449;11804
1486;11807
1518;11809
1513;11812
1498;11814
1472;11817
1450;11820
1453;11823
1463;11825
1471;11828
1500;11830
1536;11832
1531;11835
1499;11837
1468;11840
1468;11842
1479;11845
1484;11847
1504;11850
1516;11852
1522;11855
1547;11857
1615;11860
1639;11863
1606;11865
1538;11868
1512;11870
1504;11873
1522;11875
1525;11878
1502;11880
1471;11883
1449;11885
1457;11888
1526;11890
1560;11892
1549;11895
1529;11897
1522;11900
1511;11902
1489;11906
1546;11908
1582;11911
1556;11913
1504;11916
1440;11918
1416;11920
1454;11923
1522;11925
1535;11928
1496;11930
1446;11933
1425;11935
1430;11938
1452;11940
1475;11943
1505;11945
1517;11948
1513;11951
1514;11953
1526;11956
1514;11958
1499;11961
1471;11963
1443;11966
1425;11968
1416;11971
1432;11973
1453;11976
1485;11978
1530;11980
1537;11983
1517;11985
1490;11988
1469;11991
1454;11994
1461;11996
1547;11999
1607;12001
1601;12004
1570;12006
1533;12008
1514;12011
1502;12013
1499;12016
1487;12018
1509;12021
1552;12023
1547;12026
1520;12028
1495;12032
1479;12034
1473;12036
1467;12039
1478;12041
1510;12044
1520;12046
1518;12049
1508;12051
1485;12054
1492;12056
1519;12059
1514;12061
1487;12064
1469;12066
1495;12068
1520;12071
1515;12073
1488;12077
1461;12079
1453;12082
1473;12084
1516;12087
1560;12089
1580;12092
1565;12094
1548;12096
1528;12099
1532;12101
1571;12104
1597;12106
1576;12109
1525;12111
1494;12114
1503;12116
1536;12120
1578;12122
1602;12124
1571;12127
1529;12129
1485;12132
1461;12134
1441;12137
1429;12139
1437;12142
1454;12144
1458;12147
1456;12149
1447;12151
1447;12154
1478;12156
1500;12160
1490;12162
1478;12165
1501;12167
1505;12170
1487;12172
1462;12175
1433;12177
1419;12180
1480;12182
1538;12184
1562;12187
1545;12189
1495;12192
1464;12194
1486;12197
1538;12199
1607;12203
1660;12205
1603;12208
1530;12210
1454;12212
1413;12215
1428;12217
1463;12220
1469;12222
1437;12225
1419;12227
1445;12230
1456;12232
1460;12235
1460;12237
1453;12239
1434;12242
1435;12244
1459;12248
1500;12250
1514;12253
1524;12255
1498;12258
1477;12260
1464;12263
1480;12265
1507;12268
1507;12270
1489;12272
1474;12275
1484;12277
1501;12280
1502;12282
1488;12285
1524;12288
1535;12291
1503;12293
1455;12296
1426;12298
1426;12300
1485;12303
1561;12305
1562;12308
1510;12310
1448;12313
1407;12315
1396;12318
1414;12320
1458;12323
1503;12325
1507;12327
1524;12331
1550;12333
1546;12336
1516;12338
1480;12341
1468;12343
1478;12346
1500;12348
1498;12351
1468;12353
1471;12355
1486;12358
1479;12360
1468;12363
1469;12365
1457;12368
1455;12370
1455;12374
1448;12376
1445;12379
1450;12381
1456;12384
1458;12386
1480;12388
1512;12391
1534;12393
1531;12396
1517;12398
1517;12401
1524;12403
1566;12406
1584;12408
1576;12411
1536;12413
1488;12416
1478;12419
1495;12421
1508;12424
1496;12426
1508;12429
1545;12431
1539;12434
1497;12436
1471;12439
1470;12441
1462;12443
1441;12446
1420;12448
1460;12451
1563;12453
1599;12456
1583;12459
1532;12462
1485;12464
1443;12467
1428;12469
1445;12472
1451;12474
1444;12476
1439;12479
1439;12481
1445;12484
1472;12486
1492;12489
1526;12491
1608;12494
1631;12496
1581;12499
1532;12502
1483;12504
1458;12507
1486;12509
1566;12512
1584;12514
1582;12517
1569;12519
1529;12522
1502;12524
1511;12527
1507;12529
1482;12531
1462;12534
1471;12536
1483;12539
1525;12541
1521;12545
1500;12547
1509;12550
1571;12552
1589;12555
1536;12557
1466;12559
1406;12562
1399;12564
1402;12567
1406;12569
1412;12572
1409;12574
1413;12577
1434;12579
1461;12582
1473;12584
1468;12588
1446;12590
1434;12592
1428;12595
1464;12597
1487;12600
1491;12602
1512;12605
1546;12607
1552;12610
1543;12612
1552;12615
1559;12617
1558;12619
1539;12622
1578;12624
1597;12627
1563;12630
1504;12633
1476;12635
1464;12638
1459;12640
1464;12643
1461;12645
1457;12647
1478;12650
1543;12652
1574;12655
1570;12657
1552;12660
1503;12662
1462;12665
1456;12667
1442;12670
1420;12673
1435;12676
1434;12678
1426;12680
1443;12683
1484;12685
1491;12688
1467;12690
1426;12693
1392;12695
1396;12698
1459;12700
1506;12703
1515;12705
1497;12707
1479;12710
1493;12712
1521;12716
1507;12718
1487;12721
1478;12723
1477;12726
1468;12728
1460;12731
1460;12733
1475;12735
1487;12738
1485;12740
1463;12743
1482;12745
1512;12748
1522;12750
1550;12753
1561;12755
1526;12759
1476;12761
1456;12764
1456;12766
1479;12768
1507;12771
1521;12773
1516;12776
1487;12778
1451;12781
1424;12783
1407;12786
1400;12788
1416;12791
1442;12793
1466;12795
1518;12798
1531;12801
1504;12804
1464;12806
1434;12809
1416;12811
1420;12814
1494;12816
1546;12819
1553;12821
1537;12823
1521;12826
1514;12828
1495;12831
1483;12833
1494;12836
1491;12838
1477;12841
1474;12844
1480;12847
1473;12849
1463;12852
1451;12854
1446;12856
1463;12859
1492;12861
1517;12864
1519;12866
1515;12869
1492;12871
1460;12874
1447;12876
1457;12879
1484;12881
1487;12883
1470;12887
1458;12889
1459;12892
1469;12894
1470;12897
1460;12899
1454;12902
1461;12904
1481;12907
1500;12909
1524;12911
1515;12914
1495;12916
1501;12919
1502;12921
1492;12924
1481;12926
1471;12930
1463;12932
1461;12935
1528;12937
1613;12939
1608;12942
1536;12944
1467;12947
1442;12949
1470;12952
1515;12954
1529;12957
1513;12959
1491;12962
1478;12964
1481;12967
1471;12969
1460;12972
1450;12975
1446;12977
1443;12980
1450;12982
1452;12985
1450;12987
1461;12990
1513;12992
1543;12995
1531;12997
1497;12999
1474;13002
1478;13004
1503;13007
1516;13009
1523;13012
1497;13015
1489;13018
1477;13020
1464;13023
1473;13025
1508;13027
1505;13030
1474;13032
1448;13035
1452;13037
1492;13040
1521;13042
1529;13045
1522;13047
1487;13050
1466;13052
1466;13056
1457;13058
1448;13060
1466;13063
1497;13065
1500;13068
1511;13070
1598;13073
1635;13075
1628;13078
1621;13080
1564;13083
1477;13085
1416;13087
1398;13090
1418;13092
1441;13095
1466;13097
1454;13101
1426;13103
1418;13106
1423;13108
1433;13111
1430;13113
1411;13115
1412;13118
1447;13120
1463;13123
1472;13125
1514;13128
1536;13130
1519;13133
1494;13135
1461;13138
1441;13140
1441;13144
1442;13146
1428;13148
1412;13151
1392;13153
1388;13156
1419;13158
1449;13161
1457;13163
1478;13166
1481;13168
1462;13171
1432;13173
1431;13175
1428;13178
1432;13180
1440;13184
1454;13186
1466;13189
1476;13191
1495;13194
1506;13196
1492;13199
1470;13201
1475;13203
1490;13206
1518;13208
1556;13211
1564;13213
1554;13216
1537;13218
1510;13221
1502;13223
1508;13227
1513;13229
1499;13231
1477;13234
1484;13236
1513;13239
1531;13241
1507;13244
1479;13246
1456;13249
1451;13251
1471;13254
1495;13256
1497;13259
1490;13261
1473;13263
1480;13266
1486;13268
1476;13272
1470;13274
1469;13277
1468;13279
1455;13282
1446;13284
1465;13287
1544;13289
1572;13291
1559;13294
1530;13296
1523;13299
1547;13301
1532;13304
1498;13306
1503;13309
1489;13312
1467;13315
1452;13317
1458;13319
1515;13322
1546;13324
1537;13327
1494;13329
1453;13332
1457;13334
1469;13337
1469;13339
1457;13342
1449;13344
1469;13347
1494;13349
1516;13351
1557;13355
1582;13357
1561;13360
1551;13362
1539;13365
1515;13367
1503;13370
1489;13372
1483;13375
1470;13377
1467;13379
1492;13382
1505;13384
1508;13387
1493;13389
1457;13392
1412;13394
1385;13398
1383;13400
1389;13403
1394;13405
1402;13407
1453;13410
1529;13412
1569;13415
1582;13417
1588;13420
1567;13422
1514;13425
1475;13427
1438;13430
1408;13432
1388;13434
1387;13437
1413;13440
1446;13443
1478;13445
1486;13448
1489;13450
1512;13453
1515;13455
1495;13458
1508;13460
1508;13463
1489;13465
1515;13467
1539;13470
1543;13472
1529;13475
1510;13477
1472;13480
1476;13483
1513;13486
1522;13488
1490;13491
1461;13493
1470;13495
1481;13498
1458;13500
1422;13503
1400;13505
1389;13508
1413;13510
1441;13513
1458;13515
1454;13518
1436;13520
1449;13522
1543;13526
1581;13528
1562;13531
1560;13533
1553;13536
1515;13538
1488;13541
1477;13543
1494;13546
1500;13548
1525;13550
1553;13553
1555;13555
1521;13558
1469;13560
1453;13563
1525;13565
1539;13569
1508;13571
1504;13574
1500;13576
1512;13579
1499;13581
1462;13583
1464;13586
1500;13588
1507;13591
1504;13593
1492;13596
1447;13598
1399;13601
1401;13603
1460;13606
1485;13608
1475;13611
1432;13614
1398;13616
1394;13619
1400;13621
1401;13624
1401;13626
1412;13629
1412;13631
1401;13634
1408;13636
1454;13638
1478;13641
1482;13643
1509;13646
1543;13648
1529;13651
1505;13654
1485;13657
1485;13659
1517;13662
1539;13664
1554;13667
1552;13669
1556;13671
1531;13674
1494;13676
1443;13679
1406;13681
1390;13684
1384;13686
1388;13689
1401;13691
1418;13694
1433;13697
1435;13699
1432;13702
1438;13704
1463;13707
1476;13709
1475;13712
1495;13714
1560;13717
1616;13719
1610;13722
1579;13724
1566;13726
1569;13729
1558;13731
1521;13734
1497;13736
1511;13740
1538;13742
1558;13745
1573;13747
1561;13750
1541;13752
1587;13754
1630;13757
1623;13759
1579;13762
1522;13764
1488;13767
1463;13769
1448;13772
1452;13774
1483;13777
1480;13779
1510;13783
1537;13785
1524;13787
1489;13790
1442;13792
1427;13795
1423;13797
1404;13800
1386;13802
1382;13805
1419;13807
1482;13810
1499;13812
1485;13814
1458;13817
1436;13819
1447;13822
1466;13825
1515;13828
1582;13830
1633;13833
1653;13835
1608;13838
1521;13840
1480;13842
1517;13845
1566;13847
1598;13850
1571;13852
1528;13855
1500;13857
1484;13860
1483;13862
1454;13865
1422;13868
1437;13871
1488;13873
1544;13875
1562;13878
1541;13880
1488;13883
1450;13885
1473;13888
1491;13890
1522;13893
1521;13895
1479;13898
1435;13900
1417;13902
1447;13905
1454;13907
1447;13911
1448;13913
1448;13916
1425;13918
1410;13921
1410;13923
1415;13926
1417;13928
1428;13930
1444;13933
1461;13935
1550;13938
1640;13940
1629;13943
1552;13945
1517;13948
1504;13950
1504;13954
1524;13956
1563;13958
1539;13961
1482;13963
1441;13966
1437;13968
1481;13971
1564;13973
1585;13976
1565;13978
1581;13981
1549;13983
1491;13986
1449;13988
1423;13990
1427;13993
1459;13996
1480;13999
1498;14001
1539;14004
1553;14006
1526;14009
1499;14011
1467;14014
1452;14016
1447;14018
1468;14021
1476;14023
1486;14026
1483;14028
1475;14031
1471;14033
1470;14036
1483;14039
1494;14042
1473;14044
1453;14046
1463;14049
1493;14051
1532;14054
1589;14056
1594;14059
1583;14061
1562;14064
1534;14066
1510;14069
1526;14071
1518;14074
1543;14076
1558;14078
1537;14082
1490;14084
1472;14087
1451;14089
1442;14092
1444;14094
1448;14097
1427;14099
1413;14102
1412;14104
1416;14106
1414;14109
1427;14111
1440;14114
1467;14116
1479;14119
1482;14121
1497;14125
1532;14127
1554;14130
1558;14132
1522;14134
1482;14137
1465;14139
1464;14142
1476;14144
1483;14147
1501;14149
1558;14152
1614;14154
1602;14157
1533;14159
1492;14161
1483;14164
1506;14167
1551;14170
1555;14172
1521;14175
1506;14177
1513;14180
1494;14182
1485;14185
1461;14187
1455;14190
1477;14192
1486;14194
1496;14197
1498;14199
1513;14202
1524;14204
1494;14208
1452;14210
1421;14213
1409;14215
1402;14218
1420;14220
1483;14222
1519;14225
1538;14227
1542;14230
1516;14232
1507;14235
1541;14237
1555;14240
1543;14242
1489;14245
1445;14247
1422;14249
1424;14253
1439;14255
1442;14258
1447;14260
1456;14263
1514;14265
1622;14268
1685;14270
1674;14273
1597;14275
1508;14277
1447;14280
1432;14282
1449;14285
1483;14287
1500;14290
1504;14292
1501;14296
1489;14298
1473;14301
1456;14303
1435;14306
1424;14308
1414;14310
1408;14313
1414;14315
1476;14318
1538;14320
1560;14323
1554;14325
1540;14328
1523;14330
1498;14333
1499;14336
1538;14338
1556;14341
1536;14343
1527;14346
1515;14348
1528;14351
1578;14353
1608;14356
1594;14358
1553;14361
1516;14363
1505;14365
1497;14368
1496;14370
1507;14373
1528;14375
1559;14379
1573;14381
1548;14384
1511;14386
1481;14389
1471;14391
1457;14394
1448;14396
1443;14398
1439;14401
1434;14403
1433;14406
1437;14408
1438;14411
1433;14413
1440;14416
1476;14418
1487;14422
1483;14424
1466;14426
1446;14429
1465;14431
1527;14434
1531;14436
1551;14439
1624;14441
1637;14444
1607;14446
1570;14449
1539;14451
1505;14453
1462;14456
1438;14458
1446;14461
1500;14464
1536;14467
1561;14469
1555;14472
1519;14474
1485;14477
1464;14479
1455;14481
1441;14484
1469;14486
1496;14489
1539;14491
1595;14494
1586;14496
1541;14499
1500;14501
1521;14504
1540;14507
1536;14510
1513;14512
1482;14514
1458;14517
1446;14519
1459;14522
1488;14524
1504;14527
1510;14529
1535;14532
1591;14534
1653;14537
1622;14539
1578;14541
1536;14544
1506;14546
1486;14550
1483;14552
1518;14555
1535;14557
1530;14560
1503;14562
1477;14565
1485;14567
1504;14569
1518;14572
1496;14574
1530;14577
1558;14579
1540;14582
1496;14584
1468;14587
1444;14589
1421;14593
1411;14595
1400;14598
1396;14600
1411;14602
1435;14605
1444;14607
1440;14610
1441;14612
1458;14615
1489;14617
1512;14620
1516;14622
1508;14625
1506;14627
1534;14629
1541;14632
1513;14635
1482;14638
1464;14640
1471;14643
1499;14645
1521;14648
1548;14650
1614;14653
1669;14655
1628;14657
1558;14660
1505;14662
1474;14665
1471;14667
1473;14670
1461;14672
1442;14675
1460;14678
1500;14681
1510;14683
1497;14686
1499;14688
1493;14690
1491;14693
1491;14695
1499;14698
1494;14700
1495;14703
1507;14705
1495;14708
1478;14710
1483;14713
1485;14715
1507;14717
1515;14721
1496;14723
1470;14726
1458;14728
1484;14731
1529;14733
1534;14736
1510;14738
1478;14741
1464;14743
1454;14745
1454;14748
1454;14750
1467;14753
1518;14755
1537;14758
1529;14760
1509;14764
1489;14766
1484;14769
1482;14771
1478;14773
1472;14776
1467;14778
1462;14781
1462;14783
1468;14786
1480;14788
1502;14791
1508;14793
1507;14796
1502;14798
1501;14801
1524;14803
1544;14806
1549;14809
1535;14811
1558;14814
1576;14816
1559;14819
1530;14821
1504;14824
1485;14826
1476;14829
1472;14831
1474;14833
1477;14836
1481;14838
1490;14841
1504;14843
1516;14846
1517;14849
1510;14852
1502;14854
1499;14857
1499;14859
1504;14861
1510;14864
1514;14866
1513;14869
1511;14871
1508;14874
1504;14876
1502;14879
1500;14881
1502;14884
1510;14886
1539;14889
1563;14892
1565;14894
1552;14897
1533;14899
1519;14902
1511;14904
1506;14907
1501;14909
1497;14912
1497;14914
1500;14917
1503;14919
1506;14921
1512;14924
1516;14926
1516;14929
1515;14931
1514;14935
1513;14937
1512;14940
1510;14942
1514;14945
1516;14947
1514;14949
1513;14952
1512;14954
1512;14957
1514;14959
1514;14962
1514;14964
1515;14967
1519;14969
1523;14972
1531;14974
1536;14978
1535;14980
1529;14982
1524;14985
1517;14987
1513;14990
1512;14992
1511;14995
1511;14997
1512;15000
1512;15002
1512;15005
1512;15007
1512;15009
1511;15012
1511;15014
1510;15017
1509;15020
1511;15023
1512;15025
1512;15028
1513;15030
1515;15033
1516;15035
1526;15037
1537;15040
1551;15042
1563;15045
1562;15047
1547;15050
1530;15052
1511;15055
1501;15057
1495;15060
1491;15063
1489;15065
1488;15068
1489;15070
1491;15073
1493;15075
1496;15078
1498;15080
1500;15083
1503;15085
1505;15088
1506;15090
1508;15093
1509;15095
1510;15097
1511;15100
1512;15102
1513;15106
1513;15108
1513;15111
1512;15113
1511;15116
1510;15118
1510;15121
1511;15123
1512;15125
1512;15128
1512;15130
1513;15133
1513;15135
1513;15138
1513;15140
1513;15143
1512;15145
1512;15149
1510;15151
1509;15153
1508;15156
1507;15158
1507;15161
1506;15163
1506;15166
1505;15168
1506;15171
1507;15173
1508;15176
1509;15178
1516;15181
1524;15183
1525;15185
1521;15188
1515;15191
1514;15194
1518;15196
1516;15199
1510;15201
1505;15204
1503;15206
1502;15209
1502;15211
1502;15213
1501;15216
1501;15218
1502;15221
1502;15223
1503;15226
1503;15228
1504;15232
1505;15234
1505;15237
1505;15239
1506;15241
1506;15244
1507;15246
1508;15249
1508;15251
1508;15254
1509;15256
1510;15259
1510;15261
1510;15264
1511;15266
1511;15269
1511;15271
1511;15273
1511;15277
1511;15279
1511;15282
1510;15284
1509;15287
1509;15289
1508;15292
1508;15294
1508;15297
1508;15299
1509;15301
1509;15304
1509;15306
1508;15309
1508;15311
1508;15314
1508;15316
1507;15320
1507;15322
1507;15325
1508;15327
1509;15329
1509;15332
1508;15334
1506;15337
1505;15339
1503;15342
1503;15344
