emg;time
1498;2
1499;4
1500;7
1502;9
1502;11
1502;13
1501;16
1500;18
1499;20
1498;23
1497;25
1497;27
1496;30
1497;32
1498;34
1498;36
1497;39
1497;41
1497;44
1496;47
1496;49
1496;51
1497;54
1499;56
1500;58
1501;61
1501;63
1502;65
1503;67
1504;70
1504;72
1504;74
1505;77
1505;79
1503;81
1503;84
1502;87
1502;89
1503;91
1505;94
1505;96
1505;98
1504;101
1503;103
1503;105
1503;108
1503;110
1504;112
1504;115
1504;117
1504;120
1505;122
1506;124
1507;128
1507;130
1508;132
1508;135
1509;137
1509;139
1509;142
1510;144
1511;146
1511;149
1511;151
1510;153
1509;156
1509;158
1509;161
1509;163
1509;165
1509;168
1509;171
1509;173
1510;176
1510;178
1509;180
1509;183
1509;185
1508;187
1507;190
1507;192
1508;194
1508;197
1508;199
1508;202
1507;204
1506;206
1506;209
1507;211
1507;214
1505;217
1505;219
1503;221
1502;224
1500;226
1499;228
1499;231
1499;233
1499;235
1500;238
1500;240
1501;243
1501;245
1501;247
1500;250
1499;252
1499;254
1499;258
1500;260
1500;262
1499;265
1500;267
1499;269
1499;272
1498;274
1498;277
1499;279
1499;281
1499;284
1498;286
1498;288
1498;291
1497;293
1497;295
1498;299
1500;301
1501;303
1500;306
1498;308
1498;310
1497;313
1498;315
1499;318
1500;320
1499;322
1498;325
1497;327
1497;329
1497;332
1497;334
1497;336
1498;339
1498;342
1498;344
1498;347
1498;349
1499;352
1500;354
1500;356
1501;359
1502;361
1503;363
1503;366
1504;368
1504;370
1502;373
1501;375
1500;377
1500;380
1500;382
1499;385
1498;388
1498;390
1499;393
1499;395
1501;397
1504;400
1505;402
1506;404
1509;407
1511;409
1509;411
1508;414
1507;416
1507;418
1506;421
1506;423
1507;425
1508;429
1507;431
1507;434
1506;436
1504;438
1503;441
1503;443
1504;445
1505;448
1506;450
1508;452
1509;455
1512;457
1514;459
1515;462
1514;464
1514;467
1513;470
1509;472
1505;475
1503;477
1501;479
1501;482
1502;484
1502;486
1501;489
1503;491
1507;493
1510;496
1512;498
1515;500
1514;503
1510;505
1505;508
1502;510
1498;513
1503;516
1507;518
1506;520
1500;523
1495;525
1491;527
1486;530
1484;532
1482;534
1479;537
1476;539
1474;542
1472;544
1470;546
1472;549
1480;551
1483;553
1482;557
1479;559
1477;561
1477;564
1479;566
1483;568
1482;571
1482;573
1485;575
1484;578
1480;580
1478;583
1476;585
1472;587
1471;590
1473;592
1481;594
1488;598
1493;600
1494;602
1492;605
1493;607
1495;609
1493;612
1491;614
1488;617
1483;619
1480;621
1477;624
1473;626
1467;628
1464;631
1463;633
1464;635
1466;638
1466;641
1465;643
1465;646
1467;648
1469;650
1471;653
1474;655
1473;658
1471;660
1471;662
1470;665
1470;667
1473;669
1475;672
1476;674
1476;676
1477;679
1477;681
1477;684
1476;687
1477;689
1480;692
1485;694
1486;696
1486;699
1488;701
1491;703
1492;706
1492;708
1493;710
1495;713
1499;715
1501;717
1499;720
1495;722
1494;724
1493;728
1491;730
1491;733
1498;735
1502;737
1505;740
1506;742
1503;744
1497;747
1492;749
1488;751
1491;754
1493;756
1492;758
1490;761
1490;763
1490;766
1491;769
1492;771
1490;774
1488;776
1485;778
1484;781
1486;783
1491;785
1496;788
1496;790
1496;792
1495;795
1496;797
1501;799
1501;802
1501;804
1503;807
1501;809
1496;812
1492;815
1492;817
1492;819
1492;822
1495;824
1499;826
1497;829
1493;831
1492;833
1498;836
1504;838
1505;840
1499;843
1495;845
1493;848
1495;850
1500;852
1503;856
1507;858
1506;860
1505;863
1507;865
1513;867
1514;870
1513;872
1519;874
1532;877
1528;879
1525;882
1527;884
1525;886
1524;889
1521;891
1515;893
1508;897
1508;899
1505;901
1501;904
1502;906
1510;908
1516;911
1513;913
1509;915
1508;918
1506;920
1505;923
1504;925
1503;927
1502;930
1502;932
1499;934
1493;937
1488;940
1489;942
1493;945
1498;947
1501;949
1503;952
1505;954
1504;957
1509;959
1519;961
1528;964
1521;966
1513;968
1506;971
1502;973
1500;975
1498;978
1495;980
1495;983
1497;986
1498;988
1498;990
1498;993
1500;995
1499;998
1496;1000
1492;1002
1488;1005
1488;1007
1489;1010
1491;1012
1493;1014
1494;1017
1495;1019
1495;1022
1494;1025
1494;1027
1494;1030
1496;1032
1503;1035
1501;1037
1495;1039
1491;1042
1489;1044
1490;1047
1492;1049
1491;1051
1489;1054
1487;1056
1486;1059
1489;1061
1490;1063
1490;1067
1488;1069
1486;1072
1487;1074
1487;1076
1486;1079
1485;1081
1484;1084
1484;1086
1489;1088
1490;1091
1488;1093
1486;1096
1485;1098
1484;1100
1489;1103
1489;1105
1487;1108
1486;1111
1490;1114
1492;1116
1493;1118
1495;1121
1495;1123
1493;1126
1495;1128
1498;1130
1502;1133
1502;1135
1497;1138
1490;1140
1488;1142
1487;1145
1489;1147
1491;1150
1490;1153
1487;1155
1486;1158
1485;1160
1485;1163
1490;1165
1495;1167
1500;1170
1501;1172
1502;1175
1500;1177
1498;1179
1497;1182
1497;1184
1500;1187
1501;1189
1501;1191
1500;1195
1499;1197
1499;1200
1500;1202
1501;1205
1502;1207
1502;1209
1499;1212
1496;1214
1495;1217
1498;1219
1501;1221
1501;1224
1501;1226
1498;1229
1498;1231
1497;1233
1498;1236
1502;1239
1504;1242
1502;1244
1499;1246
1499;1249
1504;1251
1502;1254
1496;1256
1493;1258
1494;1261
1498;1263
1495;1266
1494;1268
1494;1270
1495;1273
1496;1275
1495;1278
1494;1281
1494;1284
1492;1286
1491;1288
1493;1291
1496;1293
1495;1296
1495;1298
1496;1300
1496;1303
1492;1305
1490;1308
1492;1310
1493;1312
1496;1315
1499;1317
1501;1320
1499;1323
1497;1325
1495;1328
1494;1330
1494;1333
1492;1335
1491;1337
1494;1340
1498;1342
1499;1345
1497;1347
1493;1349
1490;1352
1489;1354
1490;1357
1491;1359
1492;1361
1494;1364
1497;1367
1499;1370
1497;1372
1498;1375
1501;1377
1501;1379
1499;1382
1496;1384
1494;1387
1493;1389
1493;1391
1492;1394
1490;1396
1494;1399
1498;1401
1502;1403
1503;1406
1504;1409
1501;1412
1500;1414
1498;1416
1496;1419
1497;1421
1501;1424
1502;1426
1503;1428
1500;1431
1496;1433
1493;1436
1492;1438
1491;1440
1490;1443
1493;1445
1495;1448
1497;1451
1502;1453
1506;1456
1511;1458
1510;1461
1504;1463
1499;1465
1493;1468
1493;1470
1494;1473
1492;1475
1490;1478
1486;1480
1483;1482
1483;1485
1486;1487
1487;1490
1487;1492
1484;1495
1482;1498
1481;1500
1481;1503
1482;1505
1486;1507
1486;1510
1485;1512
1486;1515
1487;1517
1489;1519
1490;1522
1488;1524
1487;1527
1488;1529
1490;1531
1488;1534
1488;1537
1490;1540
1491;1542
1491;1544
1492;1547
1498;1549
1499;1552
1498;1554
1498;1556
1498;1559
1502;1561
1506;1564
1503;1566
1501;1569
1498;1571
1496;1573
1493;1576
1491;1579
1492;1582
1489;1584
1489;1586
1495;1589
1499;1591
1499;1594
1500;1596
1496;1598
1493;1601
1492;1603
1495;1606
1498;1608
1497;1610
1497;1613
1501;1615
1502;1618
1498;1620
1494;1623
1493;1626
1494;1628
1497;1631
1496;1633
1495;1635
1495;1638
1498;1640
1500;1643
1503;1645
1501;1647
1500;1650
1496;1652
1493;1655
1496;1657
1497;1659
1493;1662
1490;1665
1489;1668
1486;1670
1481;1673
1476;1675
1472;1677
1470;1680
1470;1682
1471;1685
1475;1687
1484;1689
1486;1692
1484;1694
1480;1697
1477;1699
1478;1701
1477;1704
1475;1707
1473;1710
1474;1712
1476;1714
1479;1717
1480;1719
1478;1722
1481;1724
1482;1726
1482;1729
1481;1731
1482;1734
1485;1736
1486;1738
1487;1741
1487;1743
1489;1746
1491;1748
1491;1751
1491;1754
1492;1756
1491;1759
1491;1761
1494;1763
1493;1766
1489;1768
1488;1771
1487;1773
1486;1776
1484;1778
1483;1780
1483;1783
1483;1785
1485;1788
1491;1790
1499;1793
1501;1796
1497;1798
1492;1801
1491;1803
1493;1805
1500;1808
1504;1810
1504;1813
1498;1815
1493;1817
1491;1820
1489;1822
1486;1825
1483;1827
1483;1829
1482;1832
1483;1835
1484;1838
1489;1840
1493;1842
1494;1845
1494;1847
1491;1850
1491;1852
1494;1854
1492;1857
1488;1859
1482;1862
1480;1864
1480;1866
1477;1869
1478;1871
1480;1874
1483;1876
1486;1880
1485;1882
1483;1884
1482;1887
1486;1889
1488;1892
1486;1894
1483;1896
1481;1899
1485;1901
1489;1904
1490;1906
1486;1908
1483;1911
1483;1913
1493;1916
1497;1918
1493;1921
1490;1924
1487;1926
1486;1929
1490;1931
1493;1933
1493;1936
1491;1938
1490;1941
1491;1943
1492;1945
1492;1948
1491;1950
1491;1953
1495;1955
1498;1957
1496;1960
1494;1963
1492;1966
1490;1968
1492;1971
1496;1973
1495;1975
1492;1978
1495;1980
1503;1983
1508;1985
1508;1987
1504;1990
1504;1992
1505;1995
1502;1997
1500;1999
1498;2002
1495;2004
1494;2008
1495;2010
1495;2012
1496;2015
1497;2017
1498;2020
1498;2022
1498;2024
1498;2027
1499;2029
1499;2032
1503;2034
1505;2036
1505;2039
1506;2041
1505;2044
1506;2046
1505;2049
1503;2052
1502;2054
1503;2057
1505;2059
1507;2061
1511;2064
1510;2066
1508;2069
1507;2071
1504;2074
1505;2076
1504;2078
1502;2081
1498;2083
1498;2086
1500;2088
1501;2091
1504;2094
1507;2096
1511;2099
1511;2101
1509;2103
1505;2106
1502;2108
1499;2111
1498;2113
1499;2115
1502;2118
1502;2120
1499;2123
1501;2125
1505;2127
1504;2130
1505;2132
1504;2136
1499;2138
1496;2140
1495;2143
1497;2145
1497;2148
1498;2150
1498;2153
1496;2155
1497;2157
1501;2160
1500;2162
1499;2165
1500;2167
1503;2169
1503;2172
1501;2174
1499;2178
1501;2180
1503;2182
1503;2185
1501;2187
1498;2190
1497;2192
1496;2194
1495;2197
1495;2199
1494;2202
1494;2204
1495;2206
1496;2209
1497;2211
1497;2214
1498;2216
1500;2219
1501;2222
1498;2224
1498;2227
1501;2229
1503;2232
1504;2234
1503;2236
1503;2239
1500;2241
1499;2244
1498;2246
1499;2248
1502;2251
1503;2253
1502;2256
1501;2258
1499;2260
1499;2264
1500;2266
1503;2269
1508;2271
1507;2273
1504;2276
1502;2278
1500;2281
1500;2283
1501;2285
1502;2288
1506;2290
1510;2293
1510;2295
1506;2297
1504;2300
1508;2302
1510;2306
1508;2308
1506;2311
1505;2313
1504;2315
1506;2318
1506;2320
1504;2323
1504;2325
1504;2327
1500;2330
1497;2332
1497;2335
1502;2337
1505;2339
1504;2342
1501;2344
1500;2348
1499;2350
1503;2352
1504;2355
1501;2357
1500;2360
1499;2362
1497;2364
1495;2367
1493;2369
1493;2372
1494;2374
1499;2376
1502;2379
1503;2381
1503;2384
1504;2386
1506;2390
1506;2392
1509;2394
1510;2397
1506;2399
1501;2402
1499;2404
1502;2406
1501;2409
1498;2411
1495;2414
1495;2416
1496;2418
1498;2421
1499;2423
1497;2426
1496;2428
1494;2430
1494;2434
1497;2436
1500;2439
1501;2441
1501;2443
1500;2446
1505;2448
1507;2451
1503;2453
1499;2455
1495;2458
1492;2460
1492;2463
1494;2465
1499;2468
1501;2470
1501;2472
1500;2476
1497;2478
1495;2481
1495;2483
1495;2485
1495;2488
1499;2490
1503;2493
1503;2495
1503;2497
1505;2500
1507;2502
1505;2505
1500;2507
1498;2509
1496;2512
1493;2514
1493;2518
1495;2520
1497;2522
1498;2525
1500;2527
1500;2530
1503;2532
1506;2534
1508;2537
1507;2539
1505;2542
1502;2544
1498;2547
1498;2549
1501;2551
1504;2554
1505;2556
1504;2560
1503;2562
1503;2564
1501;2567
1497;2569
1495;2572
1496;2574
1497;2576
1496;2579
1495;2581
1496;2584
1498;2586
1498;2588
1499;2591
1503;2593
1509;2596
1515;2598
1513;2600
1511;2604
1508;2606
1502;2609
1496;2611
1494;2613
1493;2616
1493;2618
1496;2621
1498;2623
1500;2625
1499;2628
1499;2630
1497;2633
1495;2635
1493;2637
1492;2640
1492;2642
1494;2646
1496;2648
1502;2651
1505;2653
1504;2655
1503;2658
1502;2660
1499;2663
1498;2665
1498;2667
1498;2670
1496;2672
1496;2675
1499;2677
1498;2679
1496;2682
1494;2684
1494;2688
1495;2690
1494;2692
1492;2695
1492;2697
1493;2700
1496;2702
1499;2704
1498;2707
1495;2709
1494;2712
1493;2714
1493;2716
1492;2719
1492;2721
1492;2724
1491;2726
1488;2728
1488;2732
1490;2734
1492;2737
1498;2739
1502;2742
1502;2744
1500;2746
1497;2749
1498;2751
1497;2754
1497;2756
1498;2758
1497;2761
1494;2763
1492;2766
1494;2768
1499;2770
1506;2774
1509;2776
1507;2779
1504;2781
1500;2783
1497;2786
1495;2788
1496;2791
1499;2793
1501;2795
1500;2798
1497;2800
1494;2803
1492;2805
1491;2807
1490;2810
1491;2812
1489;2816
1490;2818
1495;2821
1498;2823
1496;2825
1495;2828
1491;2830
1488;2833
1487;2835
1486;2837
1485;2840
1487;2842
1490;2845
1492;2847
1496;2849
1496;2852
1492;2854
1489;2857
1486;2860
1485;2862
1486;2865
1490;2867
1495;2870
1495;2872
1490;2874
1485;2877
1482;2879
1484;2882
1488;2884
1493;2886
1498;2889
1497;2891
1494;2894
1490;2896
1487;2898
1485;2902
1485;2904
1490;2907
1493;2909
1494;2912
1496;2914
1502;2916
1503;2919
1499;2921
1496;2924
1495;2926
1495;2928
1495;2931
1492;2933
1489;2936
1487;2938
1486;2940
1487;2944
1489;2946
1491;2949
1494;2951
1493;2953
1490;2956
1490;2958
1492;2961
1492;2963
1491;2965
1488;2968
1487;2970
1487;2973
1490;2975
1493;2977
1494;2980
1497;2982
1501;2985
1501;2988
1499;2991
1495;2993
1493;2995
1492;2998
1491;3000
1488;3003
1487;3005
1489;3007
1492;3010
1493;3012
1492;3015
1491;3017
1492;3019
1490;3022
1489;3024
1489;3027
1492;3030
1498;3032
1496;3035
1491;3037
1488;3040
1488;3042
1491;3044
1491;3047
1489;3049
1488;3052
1487;3054
1487;3056
1489;3059
1495;3061
1501;3064
1503;3066
1502;3069
1499;3072
1494;3074
1492;3077
1496;3079
1498;3082
1494;3084
1490;3086
1489;3089
1488;3091
1489;3094
1490;3096
1490;3098
1489;3101
1487;3103
1484;3106
1482;3108
1481;3110
1480;3113
1483;3116
1488;3119
1491;3121
1489;3123
1486;3126
1484;3128
1486;3131
1486;3133
1485;3135
1488;3138
1488;3140
1488;3143
1489;3145
1491;3148
1491;3150
1493;3152
1493;3155
1493;3158
1496;3161
1499;3163
1496;3165
1493;3168
1488;3170
1489;3173
1495;3175
1495;3177
1492;3180
1491;3182
1495;3185
1495;3187
1496;3189
1497;3192
1496;3194
1497;3197
1498;3200
1500;3202
1499;3205
1498;3207
1494;3210
1493;3212
1493;3214
1492;3217
1493;3219
1493;3222
1491;3224
1491;3227
1493;3229
1493;3231
1492;3234
1491;3236
1490;3239
1489;3241
1488;3244
1488;3247
1492;3249
1498;3252
1499;3254
1499;3256
1499;3259
1501;3261
1505;3264
1503;3266
1500;3268
1497;3271
1496;3273
1497;3276
1498;3278
1495;3280
1494;3283
1492;3286
1490;3289
1488;3291
1488;3293
1488;3296
1492;3298
1494;3301
1494;3303
1494;3305
1496;3308
1499;3310
1497;3313
1495;3315
1492;3318
1491;3320
1493;3322
1493;3325
1492;3328
1488;3331
1485;3333
1485;3335
1487;3338
1488;3340
1491;3343
1491;3345
1487;3347
1485;3350
1484;3352
1487;3355
1488;3357
1489;3359
1486;3362
1482;3364
1481;3367
1481;3369
1480;3372
1480;3375
1487;3377
1492;3380
1491;3382
1489;3384
1486;3387
1483;3389
1482;3392
1480;3394
1479;3396
1481;3399
1482;3401
1482;3404
1483;3406
1483;3409
1483;3411
1488;3414
1492;3417
1492;3419
1492;3422
1492;3424
1492;3426
1489;3429
1489;3431
1491;3434
1492;3436
1491;3438
1487;3441
1483;3443
1483;3446
1485;3448
1487;3450
1486;3453
1487;3456
1488;3459
1489;3461
1493;3463
1496;3466
1496;3468
1493;3471
1488;3473
1486;3475
1488;3478
1492;3480
1496;3483
1496;3485
1495;3488
1493;3490
1492;3492
1488;3495
1486;3497
1485;3501
1484;3503
1486;3505
1486;3508
1487;3510
1491;3513
1498;3515
1502;3517
1500;3520
1498;3522
1496;3525
1495;3527
1498;3529
1498;3532
1498;3534
1504;3537
1510;3539
1509;3542
1504;3545
1498;3547
1494;3550
1492;3552
1489;3554
1489;3557
1491;3559
1496;3562
1500;3564
1502;3567
1500;3569
1499;3571
1498;3574
1499;3576
1501;3579
1510;3581
1512;3584
1505;3587
1501;3589
1501;3592
1499;3594
1503;3596
1507;3599
1507;3601
1505;3604
1500;3606
1499;3608
1502;3611
1503;3613
1502;3616
1499;3618
1495;3620
1494;3623
1494;3625
1495;3629
1498;3631
1501;3633
1501;3636
1501;3638
1502;3641
1502;3643
1502;3646
1502;3648
1501;3650
1499;3653
1497;3655
1498;3658
1499;3660
1504;3662
1507;3665
1507;3667
1505;3671
1502;3673
1499;3675
1497;3678
1498;3680
1498;3683
1499;3685
1501;3687
1501;3690
1501;3692
1503;3695
1500;3697
1497;3699
1499;3702
1501;3704
1501;3707
1498;3709
1494;3712
1490;3715
1488;3717
1490;3720
1492;3722
1494;3725
1493;3727
1492;3729
1490;3732
1488;3734
1488;3737
1493;3739
1496;3741
1497;3744
1496;3746
1494;3749
1493;3751
1493;3753
1492;3757
1491;3759
1490;3762
1490;3764
1490;3766
1490;3769
1489;3771
1489;3774
1493;3776
1492;3778
1489;3781
1489;3783
1489;3786
1488;3788
1490;3790
1492;3793
1492;3795
1491;3799
1488;3801
1488;3804
1494;3806
1496;3808
1496;3811
1493;3813
1489;3816
1486;3818
1486;3820
1487;3823
1489;3825
1492;3828
1493;3830
1491;3832
1489;3835
1486;3837
1487;3841
1492;3843
1497;3845
1498;3848
1499;3850
1499;3853
1499;3855
1497;3857
1495;3860
1493;3862
1493;3865
1495;3867
1495;3870
1495;3872
1495;3874
1500;3877
1501;3879
1498;3883
1496;3885
1496;3887
1496;3890
1494;3892
1492;3895
1489;3897
1487;3899
1486;3902
1489;3904
1492;3907
1496;3909
1495;3911
1492;3914
1490;3916
1488;3919
1490;3921
1494;3923
1494;3927
1491;3929
1489;3932
1488;3934
1488;3936
1489;3939
1493;3941
1498;3944
1498;3946
1499;3948
1497;3951
1493;3953
1489;3956
1489;3958
1489;3961
1488;3963
1489;3965
1493;3969
1494;3971
1495;3974
1497;3976
1498;3978
1497;3981
1494;3983
1492;3986
1491;3988
1492;3990
1491;3993
1490;3995
1491;3998
1496;4000
1496;4002
1493;4005
1490;4007
1490;4011
1494;4013
1499;4015
1500;4018
1496;4020
1492;4023
1491;4025
1491;4027
1493;4030
1501;4032
1501;4035
1497;4037
1494;4040
1491;4042
1490;4044
1490;4047
1491;4049
1493;4052
1494;4055
1495;4057
1497;4060
1496;4062
1493;4065
1493;4067
1495;4069
1497;4072
1494;4074
1492;4077
1492;4079
1492;4081
1490;4084
1490;4086
1494;4089
1496;4091
1495;4093
1494;4097
1493;4099
1494;4102
1494;4104
1493;4106
1491;4109
1495;4111
1500;4114
1499;4116
1496;4118
1494;4121
1495;4123
1495;4126
1496;4128
1498;4131
1501;4133
1499;4135
1499;4139
1496;4141
1494;4144
1494;4146
1494;4148
1493;4151
1493;4153
1494;4156
1494;4158
1494;4160
1497;4163
1497;4165
1498;4168
1498;4170
1499;4172
1499;4175
1498;4177
1502;4180
1502;4183
1498;4185
1493;4188
1489;4190
1490;4193
1492;4195
1492;4197
1492;4200
1492;4202
1492;4205
1491;4207
1489;4210
1492;4212
1496;4214
1498;4217
1497;4219
1494;4222
1491;4225
1493;4227
1498;4230
1502;4232
1501;4235
1498;4237
1494;4239
1492;4242
1491;4244
1489;4247
1486;4249
1484;4251
1483;4254
1482;4256
1483;4259
1487;4261
1490;4263
1490;4267
1489;4269
1489;4272
1488;4274
1487;4276
1487;4279
1486;4281
1489;4284
1495;4286
1499;4289
1500;4291
1496;4293
1491;4296
1488;4298
1485;4301
1486;4303
1487;4305
1491;4308
1492;4311
1493;4314
1495;4316
1495;4318
1494;4321
1493;4323
1496;4326
1494;4328
1492;4330
1488;4333
1486;4335
1487;4338
1488;4340
1492;4342
1494;4345
1494;4347
1493;4350
1497;4353
1497;4355
1495;4358
1494;4360
1495;4363
1494;4365
1492;4367
1491;4370
1491;4372
1491;4375
1493;4377
1494;4379
1495;4382
1493;4384
1493;4387
1494;4389
1495;4392
1497;4395
1497;4397
1496;4400
1496;4402
1496;4405
1494;4407
1491;4409
1489;4412
1487;4414
1489;4417
1492;4419
1497;4421
1501;4424
1504;4426
1501;4429
1497;4431
1495;4433
1493;4436
1493;4439
1494;4442
1494;4444
1495;4446
1498;4449
1499;4451
1496;4454
1494;4456
1494;4459
1493;4461
1495;4463
1498;4466
1502;4468
1502;4471
1504;4473
1505;4475
1504;4478
1502;4481
1499;4484
1496;4486
1496;4488
1496;4491
1499;4493
1505;4496
1509;4498
1511;4500
1511;4503
1509;4505
1504;4508
1501;4510
1501;4512
1503;4515
1502;4517
1503;4520
1501;4523
1498;4525
1498;4528
1501;4530
1505;4533
1507;4535
1506;4538
1507;4540
1505;4542
1499;4545
1496;4547
1499;4550
1504;4552
1507;4554
1507;4557
1503;4559
1499;4562
1496;4564
1495;4567
1502;4570
1505;4572
1504;4575
1500;4577
1498;4579
1498;4582
1498;4584
1497;4587
1497;4589
1497;4591
1499;4594
1499;4596
1500;4599
1501;4601
1503;4604
1504;4606
1505;4609
1505;4612
1505;4614
1505;4617
1504;4619
1500;4621
1497;4624
1495;4626
1496;4629
1498;4631
1500;4633
1498;4636
1498;4638
1497;4641
1497;4643
1496;4645
1493;4648
1491;4651
1490;4654
1489;4656
1494;4658
1500;4661
1503;4663
1503;4666
1499;4668
1497;4670
1494;4673
1494;4675
1498;4678
1503;4680
1506;4683
1507;4685
1504;4687
1501;4690
1502;4692
1502;4696
1501;4698
1499;4700
1497;4703
1494;4705
1495;4708
1496;4710
1500;4712
1502;4715
1503;4717
1502;4720
1501;4722
1503;4724
1504;4727
1503;4729
1500;4732
1497;4734
1496;4737
1500;4740
1498;4742
1495;4745
1494;4747
1494;4750
1492;4752
1491;4754
1490;4757
1488;4759
1489;4762
1495;4764
1498;4766
1498;4769
1498;4771
1498;4774
1497;4776
1497;4779
1496;4782
1496;4784
1499;4787
1501;4789
1498;4791
1495;4794
1495;4796
1498;4799
1498;4801
1496;4803
1495;4806
1493;4808
1495;4811
1495;4813
1497;4816
1498;4818
1498;4820
1497;4824
1494;4826
1490;4829
1487;4831
1487;4833
1486;4836
1487;4838
1489;4841
1490;4843
1492;4845
1493;4848
1491;4850
1491;4853
1491;4855
1488;4857
1488;4860
1492;4862
1492;4866
1492;4868
1491;4870
1491;4873
1492;4875
1493;4878
1493;4880
1491;4882
1490;4885
1492;4887
1490;4890
1486;4892
1485;4895
1486;4897
1490;4899
1492;4902
1489;4904
1486;4908
1486;4910
1486;4912
1489;4915
1492;4917
1490;4920
1487;4922
1488;4924
1491;4927
1494;4929
1493;4932
1488;4934
1486;4936
1485;4939
1485;4941
1484;4944
1485;4946
1486;4948
1492;4952
1495;4954
1495;4957
1493;4959
1492;4961
1491;4964
1488;4966
1487;4969
1491;4971
1494;4974
1495;4976
1495;4978
1492;4981
1488;4983
1488;4986
1489;4988
1492;4990
1494;4994
1493;4996
1490;4999
1486;5001
1484;5003
1485;5006
1488;5008
1486;5011
1485;5013
1489;5015
1490;5018
1490;5020
1490;5023
1489;5025
1487;5027
1489;5030
1488;5032
1488;5036
1487;5038
1490;5040
1494;5043
1495;5045
1492;5048
1491;5050
1490;5053
1489;5055
1488;5057
1491;5060
1495;5062
1495;5065
1492;5067
1489;5069
1487;5072
1486;5074
1486;5078
1487;5080
1488;5082
1489;5085
1493;5087
1497;5090
1497;5092
1497;5094
1498;5097
1494;5099
1490;5102
1488;5104
1488;5106
1490;5109
1490;5111
1492;5114
1495;5116
1495;5120
1494;5122
1495;5124
1494;5127
1493;5129
1492;5132
1490;5134
1488;5136
1486;5139
1487;5141
1490;5144
1491;5146
1490;5148
1491;5151
1492;5153
1492;5156
1492;5158
1492;5160
1490;5164
1491;5166
1494;5169
1494;5171
1499;5173
1501;5176
1494;5178
1488;5181
1484;5183
1483;5185
1483;5188
1483;5190
1483;5193
1483;5195
1485;5197
1491;5200
1493;5202
1491;5206
1489;5208
1486;5210
1485;5213
1486;5215
1490;5218
1492;5220
1494;5223
1498;5225
1506;5227
1504;5230
1498;5232
1491;5235
1487;5237
1484;5239
1487;5242
1489;5244
1488;5248
1487;5250
1485;5252
1486;5255
1486;5257
1488;5260
1490;5262
1492;5264
1491;5267
1488;5269
1486;5272
1486;5274
1488;5276
1493;5279
1493;5281
1490;5284
1491;5286
1491;5288
1491;5292
1494;5294
1497;5297
1495;5299
1493;5302
1493;5304
1494;5306
1495;5309
1494;5311
1495;5314
1497;5316
1495;5318
1494;5321
1492;5323
1489;5326
1488;5328
1488;5330
1491;5334
1494;5336
1494;5339
1491;5341
1490;5343
1495;5346
1498;5348
1496;5351
1493;5353
1491;5355
1491;5358
1495;5360
1496;5363
1495;5365
1493;5367
1491;5370
1492;5372
1499;5376
1500;5378
1496;5380
1493;5383
1491;5385
1491;5388
1494;5390
1498;5393
1499;5395
1496;5397
1496;5400
1497;5402
1496;5405
1498;5407
1497;5409
1494;5412
1492;5414
1493;5417
1495;5420
1494;5422
1492;5425
1488;5427
1486;5430
1487;5432
1488;5434
1488;5437
1489;5439
1489;5442
1494;5444
1494;5446
1491;5449
1491;5451
1491;5454
1488;5456
1486;5458
1488;5462
1489;5464
1490;5467
1489;5469
1487;5472
1486;5474
1491;5476
1495;5479
1496;5481
1495;5484
1492;5486
1493;5488
1493;5491
1494;5493
1496;5496
1496;5498
1497;5500
1497;5504
1497;5506
1500;5509
1502;5511
1501;5513
1499;5516
1500;5518
1499;5521
1496;5523
1497;5525
1497;5528
1498;5530
1498;5533
1498;5535
1499;5537
1503;5540
1509;5542
1513;5545
1513;5548
1511;5551
1508;5553
1502;5555
1500;5558
1502;5560
1504;5563
1501;5565
1498;5567
1498;5570
1498;5572
1497;5575
1496;5577
1496;5579
1498;5582
1500;5584
1501;5587
1505;5590
1508;5592
1511;5595
1510;5597
1508;5600
1505;5602
1502;5604
1503;5607
1503;5609
1502;5612
1502;5614
1504;5617
1502;5619
1502;5621
1500;5624
1496;5626
1492;5629
1489;5632
1487;5634
1487;5637
1487;5639
1488;5642
1490;5644
1494;5646
1496;5649
1497;5651
1496;5654
1497;5656
1497;5658
1495;5661
1495;5663
1495;5666
1497;5668
1498;5670
1496;5673
1493;5676
1488;5679
1483;5681
1480;5683
1481;5686
1484;5688
1486;5691
1485;5693
1483;5696
1481;5698
1487;5700
1497;5703
1498;5705
1494;5708
1489;5710
1484;5712
1480;5715
1481;5718
1486;5721
1485;5723
1482;5725
1479;5728
1478;5730
1478;5733
1478;5735
1478;5737
1478;5740
1480;5742
1483;5745
1483;5747
1483;5749
1485;5752
1488;5754
1487;5757
1484;5760
1483;5762
1484;5765
1491;5767
1494;5770
1493;5772
1489;5775
1487;5777
1484;5779
1487;5782
1488;5784
1488;5787
1490;5789
1491;5791
1489;5794
1491;5796
1496;5799
1496;5801
1495;5804
1494;5807
1493;5809
1491;5812
1488;5814
1489;5816
1492;5819
1495;5821
1501;5824
1500;5826
1497;5828
1492;5831
1491;5833
1497;5836
1497;5838
1496;5840
1494;5843
1492;5846
1492;5849
1495;5851
1495;5854
1495;5856
1495;5858
1496;5861
1496;5863
1494;5866
1493;5868
1493;5870
1500;5873
1505;5875
1505;5878
1504;5880
1501;5882
1499;5885
1507;5888
1509;5891
1506;5893
1502;5895
1498;5898
1496;5900
1499;5903
1501;5905
1502;5907
1503;5910
1504;5912
1503;5915
1500;5917
1499;5920
1500;5922
1500;5924
1502;5927
1506;5929
1510;5933
1513;5935
1509;5937
1505;5940
1507;5942
1508;5945
1508;5947
1511;5949
1510;5952
1508;5954
1507;5957
1508;5959
1508;5961
1507;5964
1507;5966
1506;5969
1507;5971
1507;5974
1507;5977
1508;5979
1508;5982
1508;5984
1510;5987
1510;5989
1507;5991
1506;5994
1505;5996
1503;5999
1502;6001
1503;6003
1510;6006
1517;6008
1518;6011
1513;6013
1506;6016
1502;6019
1499;6021
1500;6024
1501;6026
1505;6028
1506;6031
1507;6033
1507;6036
1507;6038
1508;6040
1507;6043
1507;6045
1508;6048
1507;6050
1505;6053
1506;6055
1504;6057
1501;6061
1499;6063
1501;6066
1503;6068
1505;6070
1506;6073
1505;6075
1502;6078
1501;6080
1505;6082
1505;6085
1502;6087
1500;6090
1498;6092
1496;6094
1495;6097
1495;6099
1496;6103
1495;6105
1492;6107
1490;6110
1492;6112
1493;6115
1492;6117
1491;6120
1492;6122
1496;6124
1502;6127
1504;6129
1503;6132
1501;6134
1506;6136
1510;6139
1509;6141
1503;6145
1497;6147
1494;6149
1498;6152
1498;6154
1499;6157
1498;6159
1495;6161
1492;6164
1491;6166
1489;6169
1488;6171
1487;6173
1487;6176
1489;6178
1492;6181
1501;6183
1503;6187
1500;6189
1495;6191
1493;6194
1493;6196
1494;6199
1495;6201
1493;6203
1491;6206
1490;6208
1491;6211
1494;6213
1496;6215
1494;6218
1491;6220
1489;6223
1489;6225
1491;6227
1490;6231
1493;6233
1498;6236
1499;6238
1497;6240
1496;6243
1496;6245
1498;6248
1500;6250
1498;6253
1497;6255
1497;6257
1500;6260
1502;6262
1502;6265
1502;6267
1502;6269
1500;6273
1500;6275
1500;6278
1499;6280
1496;6282
1495;6285
1495;6287
1498;6290
1501;6292
1501;6294
1501;6297
1506;6299
1509;6302
1508;6304
1504;6306
1501;6309
1498;6311
1497;6315
1495;6317
1494;6320
1494;6322
1495;6324
1497;6327
1502;6329
1507;6332
1508;6334
1509;6336
1509;6339
1506;6341
1503;6344
1502;6346
1502;6348
1500;6351
1502;6353
1504;6356
1504;6359
1503;6361
1502;6364
1500;6366
1498;6369
1500;6371
1502;6373
1501;6376
1500;6378
1502;6381
1505;6383
1510;6386
1516;6388
1516;6390
1512;6393
1505;6395
1501;6398
1499;6401
1499;6403
1498;6406
1497;6408
1498;6411
1500;6413
1504;6415
1506;6418
1506;6420
1507;6423
1508;6425
1508;6427
1505;6430
1501;6432
1500;6435
1505;6437
1505;6439
1502;6443
1499;6445
1496;6448
1493;6450
1492;6452
1490;6455
1490;6457
1490;6460
1490;6462
1490;6464
1493;6467
1500;6469
1504;6472
1505;6474
1505;6477
1501;6479
1500;6481
1501;6484
1500;6487
1498;6490
1496;6492
1502;6494
1508;6497
1507;6499
1502;6502
1496;6504
1493;6506
1491;6509
1490;6511
1490;6514
1490;6516
1491;6518
1492;6521
1491;6523
1490;6526
1491;6529
1497;6531
1502;6534
1501;6536
1497;6539
1494;6541
1493;6543
1495;6546
1494;6548
1499;6551
1502;6553
1501;6556
1496;6558
1494;6560
1493;6563
1493;6565
1494;6568
1492;6571
1491;6573
1492;6576
1494;6578
1495;6581
1498;6583
1502;6585
1504;6588
1503;6590
1501;6593
1498;6595
1497;6597
1496;6600
1497;6602
1497;6605
1497;6607
1497;6609
1498;6612
1497;6615
1498;6618
1499;6620
1499;6622
1500;6625
1499;6627
1499;6630
1498;6632
1501;6634
1508;6637
1508;6639
1503;6642
1499;6644
1500;6646
1501;6649
1500;6651
1496;6654
1493;6657
1491;6660
1491;6662
1496;6664
1505;6667
1510;6669
1507;6672
1502;6674
1499;6676
1497;6679
1495;6681
1495;6684
1496;6686
1496;6688
1500;6691
1503;6693
1504;6696
1500;6699
1497;6701
1496;6704
1497;6706
1497;6709
1496;6711
1494;6713
1493;6716
1492;6718
1493;6721
1495;6723
1499;6726
1501;6728
1501;6730
1504;6733
1508;6735
1508;6738
1505;6740
1502;6743
1501;6746
1502;6748
1503;6751
1502;6753
1499;6755
1497;6758
1497;6760
1496;6763
1497;6765
1494;6767
1492;6770
1493;6772
1499;6775
1498;6777
1496;6779
1496;6782
1496;6785
1498;6788
1499;6790
1499;6792
1498;6795
1496;6797
1495;6800
1495;6802
1496;6805
1496;6807
1498;6809
1501;6812
1505;6814
1505;6817
1502;6819
1503;6821
1503;6824
1503;6827
1500;6830
1497;6832
1495;6834
1494;6837
1496;6839
1497;6842
1496;6844
1497;6846
1497;6849
1496;6851
1494;6854
1493;6856
1496;6858
1497;6861
1498;6863
1500;6866
1499;6868
1495;6872
1496;6874
1498;6876
1499;6879
1498;6881
1496;6884
1495;6886
1495;6888
1496;6891
1497;6893
1498;6896
1499;6898
1500;6900
1499;6903
1498;6905
1496;6908
1496;6910
1496;6913
1495;6916
1496;6918
1496;6921
1495;6923
1499;6925
1503;6928
1505;6930
1502;6933
1499;6935
1497;6937
1498;6940
1501;6942
1501;6945
1499;6947
1497;6950
1495;6952
1495;6955
1498;6958
1500;6960
1501;6963
1500;6965
1497;6967
1494;6970
1492;6972
1493;6975
1494;6977
1493;6979
1493;6982
1493;6984
1493;6987
1491;6989
1491;6991
1493;6994
1492;6996
1492;7000
1490;7002
1488;7004
1486;7007
1485;7009
1485;7012
1485;7014
1486;7017
1488;7019
1490;7021
1494;7024
1496;7026
1498;7029
1498;7031
1496;7033
1495;7036
1492;7038
1491;7042
1492;7044
1490;7046
1487;7049
1484;7051
1483;7054
1485;7056
1486;7058
1487;7061
1491;7063
1492;7066
1489;7068
1487;7070
1485;7073
1485;7075
1486;7078
1487;7080
1488;7083
1490;7086
1489;7088
1489;7091
1492;7093
1495;7096
1497;7098
1495;7100
1492;7103
1489;7105
1487;7108
1487;7110
1487;7112
1488;7115
1489;7117
1493;7120
1493;7122
1491;7124
1491;7128
1492;7130
1491;7133
1488;7135
1487;7137
1488;7140
1490;7142
1492;7145
1493;7147
1497;7149
1497;7152
1493;7154
1489;7157
1487;7159
1486;7162
1485;7164
1485;7166
1489;7170
1495;7172
1497;7175
1497;7177
1495;7179
1492;7182
1492;7184
1489;7187
1487;7189
1486;7191
1493;7194
1497;7196
1497;7199
1494;7201
1493;7203
1494;7206
1493;7208
1492;7212
1490;7214
1491;7216
1495;7219
1494;7221
1490;7224
1488;7226
1487;7228
1487;7231
1487;7233
1486;7236
1485;7238
1488;7241
1491;7243
1490;7245
1487;7248
1486;7250
1484;7254
1482;7256
1484;7258
1486;7261
1489;7263
1493;7266
1494;7268
1495;7270
1493;7273
1493;7275
1490;7278
1486;7280
1484;7282
1487;7285
1491;7287
1495;7290
1498;7292
1494;7294
1491;7298
1493;7300
1494;7303
1497;7305
1502;7307
1504;7310
1498;7312
1491;7315
1487;7317
1488;7320
1486;7322
1481;7324
1479;7327
1478;7329
1476;7332
1476;7334
1477;7336
1478;7340
1481;7342
1484;7345
1484;7347
1484;7349
1484;7352
1484;7354
1483;7357
1484;7359
1488;7361
1493;7364
1495;7366
1495;7369
1495;7371
1494;7374
1492;7376
1490;7378
1490;7382
1492;7384
1491;7387
1491;7389
1491;7391
1491;7394
1490;7396
1486;7399
1483;7401
1483;7403
1483;7406
1482;7408
1485;7411
1490;7413
1493;7415
1495;7418
1497;7420
1499;7424
1498;7426
1494;7428
1491;7431
1490;7433
1494;7436
1506;7438
1510;7440
1507;7443
1503;7445
1503;7448
1500;7450
1495;7453
1491;7455
1491;7457
1495;7460
1495;7462
1495;7465
1495;7468
1494;7470
1496;7473
1496;7475
1496;7478
1495;7480
1495;7482
1496;7485
1500;7487
1508;7490
1512;7492
1508;7494
1505;7497
1506;7499
1504;7502
1497;7504
1491;7506
1488;7510
1488;7512
1490;7515
1489;7517
1489;7520
1490;7522
1490;7524
1491;7527
1497;7529
1505;7532
1510;7534
1509;7536
1507;7539
1502;7541
1498;7544
1496;7546
1495;7548
1495;7552
1497;7554
1502;7557
1503;7559
1501;7561
1499;7564
1500;7566
1498;7569
1496;7571
1496;7573
1495;7576
1495;7578
1496;7581
1496;7583
1497;7586
1498;7588
1498;7590
1499;7593
1502;7596
1502;7599
1501;7601
1498;7603
1498;7606
1498;7608
1500;7611
1501;7613
1502;7615
1507;7618
1512;7620
1510;7623
1505;7625
1502;7627
1503;7630
1504;7632
1505;7635
1513;7638
1516;7640
1511;7643
1505;7645
1501;7648
1499;7650
1500;7653
1500;7655
1502;7657
1503;7660
1502;7662
1503;7665
1505;7667
1505;7669
1505;7672
1509;7674
1511;7677
1510;7680
1505;7682
1502;7685
1504;7687
1505;7690
1505;7692
1509;7694
1509;7697
1505;7699
1502;7702
1501;7704
1498;7706
1497;7709
1499;7711
1499;7714
1499;7716
1502;7719
1504;7721
1506;7724
1505;7727
1503;7729
1504;7732
1506;7734
1506;7736
1509;7739
1511;7741
1509;7744
1506;7746
1504;7748
1505;7751
1505;7753
1504;7756
1501;7758
1499;7760
1497;7763
1496;7766
1495;7769
1496;7771
1498;7773
1503;7776
1502;7778
1501;7781
1501;7783
1502;7786
1502;7788
1502;7790
1499;7793
1498;7795
1497;7798
1496;7800
1497;7802
1498;7805
1498;7808
1501;7811
1508;7813
1511;7815
1506;7818
1500;7820
1499;7823
1498;7825
1498;7827
1498;7830
1499;7832
1499;7835
1501;7837
1506;7839
1511;7842
1513;7844
1513;7847
1513;7849
1508;7853
1503;7855
1497;7857
1495;7860
1498;7862
1499;7865
1499;7867
1499;7869
1498;7872
1496;7874
1495;7877
1497;7879
1497;7881
1496;7884
1496;7886
1498;7889
1496;7891
1494;7894
1493;7897
1492;7899
1493;7902
1496;7904
1499;7906
1502;7909
1504;7911
1502;7914
1499;7916
1498;7919
1498;7921
1499;7923
1499;7926
1496;7928
1493;7931
1493;7933
1493;7936
1493;7939
1494;7941
1494;7944
1495;7946
1499;7948
1501;7951
1499;7953
1494;7956
1491;7958
1489;7960
1490;7963
1492;7965
1491;7968
1491;7970
1493;7972
1496;7975
1499;7977
1501;7981
1499;7983
1495;7986
1491;7988
1489;7990
1488;7993
1488;7995
1494;7998
1497;8000
1497;8002
1493;8005
1489;8007
1489;8010
1491;8012
1491;8014
1492;8017
1495;8019
1500;8023
1500;8025
1504;8027
1500;8030
1493;8032
1489;8035
1492;8037
1494;8039
1494;8042
1497;8044
1494;8047
1489;8049
1488;8051
1487;8054
1486;8056
1487;8059
1488;8061
1492;8064
1495;8067
1496;8069
1496;8072
1495;8074
1495;8076
1496;8079
1502;8081
1506;8084
1504;8086
1501;8089
1499;8091
1499;8093
1498;8096
1499;8098
1503;8101
1505;8103
1502;8105
1498;8109
1497;8111
1497;8114
1499;8116
1501;8118
1502;8121
1502;8123
1502;8126
1505;8128
1506;8130
1506;8133
1508;8135
1505;8138
1501;8140
1499;8142
1501;8145
1509;8147
1510;8151
1507;8153
1508;8156
1510;8158
1508;8160
1504;8163
1501;8165
1500;8168
1499;8170
1497;8172
1496;8175
1498;8177
1501;8180
1501;8182
1501;8184
1502;8187
1500;8189
1498;8193
1497;8195
1496;8197
1494;8200
1498;8202
1503;8205
1502;8207
1502;8209
1505;8212
1508;8214
1507;8217
1502;8219
1498;8221
1494;8224
1490;8226
1489;8229
1491;8231
1492;8235
1496;8237
1497;8239
1499;8242
1501;8244
1502;8247
1504;8249
1502;8251
1499;8254
1494;8256
1491;8259
1490;8261
1491;8263
1495;8266
1501;8268
1501;8271
1498;8273
1498;8275
1500;8279
1497;8281
1497;8284
1497;8286
1497;8288
1494;8291
1492;8293
1493;8296
1495;8298
1497;8300
1496;8303
1496;8305
1496;8308
1495;8310
1495;8313
1492;8315
1491;8317
1497;8321
1502;8323
1502;8326
1502;8328
1498;8330
1493;8333
1491;8335
1493;8338
1494;8340
1494;8342
1496;8345
1497;8347
1496;8350
1495;8352
1497;8354
1499;8357
1503;8359
1502;8363
1500;8365
1498;8367
1498;8370
1500;8372
1503;8375
1507;8377
1508;8379
1508;8382
1510;8384
1511;8387
1509;8389
1503;8392
1500;8394
1501;8396
1503;8399
1500;8401
1498;8404
1502;8407
1507;8409
1508;8412
1506;8414
1502;8417
1500;8419
1498;8421
1499;8424
1503;8426
1503;8429
1502;8431
1501;8433
1500;8436
1502;8438
1502;8441
1502;8443
1500;8445
1500;8449
1498;8451
1497;8454
1494;8456
1493;8458
1495;8461
1500;8463
1502;8466
1502;8468
1503;8471
1504;8473
1503;8475
1504;8478
1507;8480
1507;8483
1504;8485
1500;8487
1497;8491
1495;8493
1493;8496
1497;8498
1502;8500
1502;8503
1502;8505
1502;8508
1499;8510
1496;8512
1494;8515
1493;8517
1492;8520
1492;8522
1497;8524
1499;8527
1497;8529
1495;8532
1494;8535
1493;8537
1491;8540
1491;8542
1490;8545
1489;8547
1489;8550
1489;8552
1489;8554
1490;8557
1489;8559
1488;8562
1489;8564
1493;8566
1492;8569
1488;8571
1484;8574
1483;8577
1486;8579
1486;8582
1485;8584
1483;8587
1483;8589
1485;8591
1485;8594
1486;8596
1489;8599
1489;8601
1487;8603
1486;8606
1485;8608
1484;8611
1483;8613
1486;8615
1487;8619
1486;8621
1484;8624
1483;8626
1482;8629
1481;8631
1484;8633
1491;8636
1492;8638
1491;8641
1488;8643
1485;8645
1483;8648
1483;8650
1483;8653
1482;8655
1484;8657
1486;8660
1490;8663
1494;8666
1500;8668
1502;8670
1502;8673
1500;8675
1495;8678
1489;8680
1485;8682
1483;8685
1481;8687
1481;8690
1484;8692
1486;8694
1486;8697
1485;8699
1484;8702
1484;8705
1486;8708
1486;8710
1487;8712
1488;8715
1486;8717
1486;8720
1487;8722
1488;8724
1490;8727
1488;8729
1489;8732
1489;8734
1488;8736
1490;8739
1488;8741
1488;8744
1493;8747
1494;8749
1489;8752
1484;8754
1480;8757
1479;8759
1479;8761
1478;8764
1478;8766
1480;8769
1484;8771
1484;8774
1483;8776
1484;8778
1490;8781
1493;8783
1491;8786
1488;8788
1486;8791
1488;8794
1487;8796
1485;8799
1484;8801
1483;8803
1483;8806
1485;8808
1486;8811
1486;8813
1485;8815
1483;8818
1480;8820
1479;8823
1480;8825
1486;8827
1490;8830
1489;8833
1488;8836
1491;8838
1492;8840
1494;8843
1497;8845
1498;8848
1496;8850
1495;8853
1497;8855
1499;8857
1499;8860
1497;8862
1494;8865
1490;8867
1487;8869
1486;8872
1488;8875
1488;8878
1487;8880
1485;8882
1486;8885
1490;8887
1492;8890
1497;8892
1509;8894
1509;8897
1500;8899
1492;8902
1489;8904
1488;8906
1488;8909
1488;8911
1491;8914
1492;8916
1490;8919
1489;8922
1488;8924
1485;8927
1482;8929
1482;8932
1482;8934
1482;8936
1484;8939
1482;8941
1480;8944
1478;8946
1478;8948
1485;8951
1491;8953
1489;8956
1483;8958
1478;8961
1474;8964
1472;8966
1471;8969
1472;8971
1475;8973
1475;8976
1474;8978
1473;8981
1474;8983
1475;8985
1474;8988
1474;8990
1475;8993
1475;8995
1477;8997
1478;9000
1479;9003
1479;9006
1479;9008
1479;9011
1480;9013
1482;9015
1485;9018
1487;9020
1488;9023
1487;9025
1486;9027
1484;9030
1482;9032
1479;9035
1478;9037
1477;9039
1478;9042
1480;9044
1481;9048
1484;9050
1490;9052
1494;9055
1493;9057
1494;9060
1495;9062
1496;9064
1499;9067
1498;9069
1495;9072
1491;9074
1491;9076
1492;9079
1492;9081
1492;9084
1491;9086
1491;9090
1488;9092
1486;9094
1486;9097
1487;9099
1486;9102
1487;9104
1492;9106
1496;9109
1499;9111
1503;9114
1506;9116
1505;9118
1505;9121
1506;9123
1506;9126
1505;9128
1506;9131
1504;9134
