emg,t,emg_filtered,emg_rectified,emg_envelope
14.11326297464916,120,0.04470175938069618,0.04470175938069618,-0.9829332768108948
16.11326297464916,122,1.5209268923696335,1.5209268923696335,-0.8295478605889731
17.11326297464916,124,2.005473884316226,2.005473884316226,-0.6782892972763219
17.11326297464916,128,1.4691813364316462,1.4691813364316462,-0.5293625954832913
17.11326297464916,130,0.9651160235331206,0.9651160235331206,-0.38296493331027126
16.11326297464916,132,-0.5616679406036025,0.5616679406036025,-0.23928510961216892
16.11326297464916,135,-1.052822950364047,1.052822950364047,-0.0985030412809774
17.11326297464916,137,-0.541770395334865,0.541770395334865,0.03921069178370422
17.11326297464916,139,-1.0227281091381966,1.0227281091381966,0.17369525271091818
17.11326297464916,142,-1.4435754436063937,1.4435754436063937,0.304799903679411
17.11326297464916,144,-1.915975897310512,1.915975897310512,0.43238431113404624
18.11326297464916,146,-1.2441030527095802,1.2441030527095802,0.5563187996239173
19.11326297464916,149,-0.7012052727110905,0.7012052727110905,0.6764845539153216
21.11326297464916,151,1.074873752410897,1.074873752410897,0.7927737692745541
26.11326297464916,153,5.6529665047228645,5.6529665047228645,0.9050897500464502
27.11326297464916,156,6.5290101031962715,6.5290101031962715,1.0133469568669369
24.11326297464916,158,3.173739334210257,3.173739334210257,1.1174710031205755
22.11326297464916,161,1.1341061851540697,1.1341061851540697,1.217398601720317
21.11326297464916,163,-0.11928861963450221,0.11928861963450221,1.3130774639720708
19.11326297464916,165,-2.0926029981857344,2.0926029981857344,1.4044661530141997
19.11326297464916,168,-2.215437372531368,2.215437372531368,1.4915338948511838
19.11326297464916,171,-2.133160932347378,2.133160932347378,1.574260350248788
19.11326297464916,173,-2.1120129442086775,2.1120129442086775,1.6526353508360474
19.11326297464916,176,-1.9715901240549485,1.9715901240549485,1.7266586028174657
18.11326297464916,178,-2.8113686079381877,2.8113686079381877,1.796339361798058
19.11326297464916,180,-1.5978761437102145,1.5978761437102145,1.8616960823472923
20.11326297464916,183,-0.31748553091919174,0.31748553091919174,1.9227560460482922
20.11326297464916,185,-0.011038896937789033,0.011038896937789033,1.9795549718734595
20.11326297464916,187,0.36549070096313396,0.36549070096313396,2.032136612752109
19.11326297464916,190,-0.21939970572475453,0.21939970572475453,2.080552342090362
18.11326297464916,192,-0.7680044319281863,0.7680044319281863,2.124860733747196
18.11326297464916,194,-0.23858029372864686,0.23858029372864686,2.165127138604324
19.11326297464916,197,1.272679970034836,1.272679970034836,2.2014232604570965
19.11326297464916,199,1.9107671792666656,1.9107671792666656,2.2338267335449506
19.11326297464916,202,2.4728525939086636,2.4728525939086636,2.2624207036599207
19.11326297464916,204,3.2042226140420844,3.2042226140420844,2.2872934144513577
17.11326297464916,206,1.8123635947836938,1.8123635947836938,2.3085378003235446
15.11326297464916,209,0.6140244383007682,0.6140244383007682,2.326251087218699
14.11326297464916,211,0.2662616094232899,0.2662616094232899,2.3405344025546135
13.11326297464916,214,0.10971076534991686,0.10971076534991686,2.3514923955509617
14.11326297464916,217,1.805311173182545,1.805311173182545,2.3592328690323274
14.11326297464916,219,2.65944730236025,2.65944730236025,2.363866423507104
13.11326297464916,221,2.396606999557719,2.396606999557719,2.3655061139540985
13.11326297464916,224,3.2312617804988184,3.2312617804988184,2.364267119419806
12.11326297464916,226,3.005110820143602,3.005110820143602,2.3602664253280152
10.11326297464916,228,1.7937556064965534,1.7937556064965534,2.3536225183455826
8.11326297464916,231,0.5957451941537973,0.5957451941537973,2.344455093689673
6.11326297464916,233,-0.6829054163155986,0.6829054163155986,2.3328847748272508
4.11326297464916,236,-1.8649588282765226,1.8649588282765226,2.3190328455198936
2.1132629746491602,238,-3.225323713667793,3.225323713667793,2.303020994047989
1.1132629746491602,240,-3.4075663924738757,3.4075663924738757,2.284971069233977
1.1132629746491602,243,-2.855403546614713,2.855403546614713,2.2650048476815705
1.1132629746491602,245,-2.0579324119251914,2.0579324119251914,2.243243811562867
1.1132629746491602,247,-1.5899903318965973,1.5899903318965973,2.2198089363382167
-0.8867370253508398,250,-2.834728512264488,2.834728512264488,2.19482048791364
-1.8867370253508398,252,-3.441364482764083,3.441364482764083,2.168397828838667
-1.8867370253508398,254,-2.7473461763263076,2.7473461763263076,2.1406592331968493
-1.8867370253508398,258,-2.417424058523687,2.417424058523687,2.1117217098874246
-2.8867370253508398,260,-2.7954652754787572,2.7954652754787572,2.0817008340932976
-2.8867370253508398,262,-2.520794054923991,2.520794054923991,2.0507105868780706
-2.8867370253508398,265,-1.9705446232142672,1.9705446232142672,2.0188632030139972
-2.8867370253508398,267,-1.7472679952288719,1.7472679952288719,1.9862690272835353
-1.8867370253508398,269,-0.2583643058016589,0.2583643058016589,1.9530363796077865
-0.8867370253508398,272,0.91527921871006,0.91527921871006,1.9192714294156175
-0.8867370253508398,274,1.3587221757398855,1.3587221757398855,1.88507807964498
-0.8867370253508398,277,1.486329158410332,1.486329158410332,1.8505578606463289
-1.8867370253508398,279,0.9008481597329728,0.9008481597329728,1.8158098340642523
-2.8867370253508398,281,-0.009784220366632623,0.009784220366632623,1.7809305065636127
-3.8867370253508398,284,-0.6092250360687694,0.6092250360687694,1.746013753072609
-2.8867370253508398,286,0.4528020085302754,0.4528020085302754,1.7111507490172222
-1.8867370253508398,288,1.8537760588554693,1.8537760588554693,1.6764299107838563
-0.8867370253508398,291,2.8989971842720275,2.8989971842720275,1.6419368433740826
-0.8867370253508398,293,3.316070033866635,3.316070033866635,1.6077542939665712
-0.8867370253508398,295,3.352043902953259,3.352043902953259,1.573962109960056
-1.8867370253508398,299,2.801722823007659,2.801722823007659,1.5406372000985418
-3.8867370253508398,301,0.834163987648298,0.834163987648298,1.5078534974765911
-5.88673702535084,303,-0.6707600363055493,0.6707600363055493,1.4756819235197627
-6.88673702535084,306,-1.6329685614304439,1.6329685614304439,1.4441903523216257
-7.88673702535084,308,-2.0902740224016014,2.0902740224016014,1.4134435748974739
-7.88673702535084,310,-2.0295862818791766,2.0295862818791766,1.3835032629666586
-5.88673702535084,313,0.547928793714423,0.547928793714423,1.3544279318669565
-3.8867370253508398,315,2.658428388696658,2.658428388696658,1.3262729022158115
-4.88673702535084,318,2.2458771008784106,2.2458771008784106,1.2990902599870326
-3.8867370253508398,320,3.4347508696086533,3.4347508696086533,1.2729288147506566
-4.88673702535084,322,3.006755457381195,3.006755457381195,1.2478340559374141
-5.88673702535084,325,2.2900098467148013,2.2900098467148013,1.2238481071799618
-7.88673702535084,327,0.8353803871238519,0.8353803871238519,1.2010096790709235
-9.88673702535084,329,-0.795445880013918,0.795445880013918,1.1793540210211262
-9.88673702535084,332,-0.2665005180669191,0.2665005180669191,1.1589128732116019
-10.88673702535084,334,-0.8439117912124463,0.8439117912124463,1.139714419826913
-10.88673702535084,336,-0.30718611580654737,0.30718611580654737,1.121783244806769
-11.88673702535084,339,-0.8727627048329855,0.8727627048329855,1.105140291289861
-12.88673702535084,342,-1.3085889614632737,1.3085889614632737,1.0898028258049788
-12.88673702535084,344,-0.8922347007015055,0.8922347007015055,1.0757844081371466
-13.88673702535084,347,-1.3030130171461167,1.3030130171461167,1.0630948676917367
-13.88673702535084,349,-0.9095327286278254,0.9095327286278254,1.0517402871140769
-14.88673702535084,352,-1.3249627798509116,1.3249627798509116,1.041722993895247
-14.88673702535084,354,-0.9354539248224303,0.9354539248224303,1.0330415606925851
-14.88673702535084,356,-0.40306931119416145,0.40306931119416145,1.0256908151015367
-14.88673702535084,359,0.011415081845969954,0.011415081845969954,1.0196618596221418
-14.88673702535084,361,0.44383653789460964,0.44383653789460964,1.0149421025499394
-15.88673702535084,363,-0.0948109203390346,0.0948109203390346,1.011515300462275
-15.88673702535084,366,0.20598227474130226,0.20598227474130226,1.0093616128543597
-15.88673702535084,368,0.7167437811359632,0.7167437811359632,1.0084576693172953
-16.88673702535084,370,-0.12070904656573467,0.12070904656573467,1.008776649468173
-17.88673702535084,373,-0.5810812132123155,0.5810812132123155,1.0102883756614458
-17.88673702535084,375,-0.5384714062134072,0.5384714062134072,1.0129594183420492
-18.88673702535084,377,-1.0087744842835278,1.0087744842835278,1.0167532137464186
-18.88673702535084,380,-1.050930112421181,1.050930112421181,1.0216301935184202
-19.88673702535084,382,-1.5768512269182184,1.5768512269182184,1.027547925691806
-19.88673702535084,385,-1.6647938579830153,1.6647938579830153,1.0344612664148394
-19.88673702535084,388,-1.2850114543265463,1.2850114543265463,1.0423225217696743
-19.88673702535084,390,-1.389054842194435,1.389054842194435,1.0510816190720773
-19.88673702535084,393,-1.1242871325868546,1.1242871325868546,1.0606862871136615
-18.88673702535084,395,-0.23186518681900392,0.23186518681900392,1.0710822449019368
-18.88673702535084,397,-0.08124098489646325,0.08124098489646325,1.0822133985304276
-18.88673702535084,400,-0.19657113281112676,0.19657113281112676,1.0940220458401122
-17.88673702535084,402,0.8576035887118326,0.8576035887118326,1.1064490884890146
-17.88673702535084,404,0.7212749872309481,0.7212749872309481,1.1194342509262307
-17.88673702535084,407,0.7029325665153023,0.7029325665153023,1.1329163056019163
-16.88673702535084,409,1.5343315192524336,1.5343315192524336,1.1468333035833513
-15.88673702535084,411,2.462787771179439,2.462787771179439,1.1611228096213455
-15.88673702535084,414,2.260639069847271,2.260639069847271,1.1757221406375018
-16.88673702535084,416,1.1455609040502077,1.1455609040502077,1.190568606602142
-16.88673702535084,418,0.918858865726351,0.918858865726351,1.205599752859855
-17.88673702535084,421,-0.23638579253644165,0.23638579253644165,1.2207536031057344
-16.88673702535084,423,0.5245725281409874,0.5245725281409874,1.2359689023454257
-16.88673702535084,425,0.33441848126471685,0.33441848126471685,1.2511853592163376
-17.88673702535084,429,-0.9096267094542234,0.9096267094542234,1.266343886986348
-15.88673702535084,431,0.8776447440805495,0.8776447440805495,1.281386842408378
-14.88673702535084,434,1.6295997403542122,1.6295997403542122,1.2962582614413405
-13.88673702535084,436,2.41038195236618,2.41038195236618,1.3109040906943956
-14.88673702535084,438,1.1598172552238688,1.1598172552238688,1.3252724133477156
-16.88673702535084,441,-1.0548826360613996,1.0548826360613996,1.3393136682718136
-16.88673702535084,443,-1.2980441290756004,1.2980441290756004,1.3529808611029737
-16.88673702535084,445,-1.5073238008075769,1.5073238008075769,1.3662297660922844
-15.88673702535084,448,-0.724603236632966,0.724603236632966,1.3790191175826354
-15.88673702535084,450,-0.932677212933997,0.932677212933997,1.3913107899671344
-15.88673702535084,452,-1.1066587921585807,1.1066587921585807,1.403069964954183
-15.88673702535084,455,-1.310783351277386,1.310783351277386,1.4142652849136867
-15.88673702535084,457,-1.4375978186884155,1.4375978186884155,1.4248689910059305
-15.88673702535084,459,-1.6181634613113267,1.6181634613113267,1.434857044714022
-16.88673702535084,462,-2.7132464754386567,2.7132464754386567,1.4442092313376682
-16.88673702535084,464,-2.8341351368451546,2.8341351368451546,1.452909243982818
-16.88673702535084,467,-2.9261579832248548,2.9261579832248548,1.4609447466205208
-15.88673702535084,470,-1.9466513517746171,1.9466513517746171,1.4683074149117898
-14.88673702535084,472,-1.0623236708227386,1.0623236708227386,1.474992953704666
-14.88673702535084,475,-0.9543441831039681,0.9543441831039681,1.4810010903613215
-14.88673702535084,477,-1.1027491152583107,1.1027491152583107,1.4863355432895284
-11.88673702535084,479,2.1363634759905072,2.1363634759905072,1.4910039651710343
-6.88673702535084,482,6.970580681164476,6.970580681164476,1.4950178603999928
-7.88673702535084,484,6.317270762372964,6.317270762372964,1.4983924762557583
-8.88673702535084,486,5.167562644989216,5.167562644989216,1.5011466674951903
-10.88673702535084,489,3.5835545994521505,3.5835545994521505,1.50330273450541
-12.88673702535084,491,1.4861408084928087,1.4861408084928087,1.504886235912565
-13.88673702535084,493,0.9342748944833077,0.9342748944833077,1.5059257774186157
-14.88673702535084,496,-0.08582168791714273,0.08582168791714273,1.5064527793940863
-15.88673702535084,498,-0.6318051128274342,0.6318051128274342,1.50650122623136
-16.88673702535084,500,-1.5652016883710433,1.5652016883710433,1.5061074006373363
-16.88673702535084,503,-1.1211242499204541,1.1211242499204541,1.5053096059941977
-15.88673702535084,505,0.03071659560695217,0.03071659560695217,1.504147879761445
-16.88673702535084,508,-0.5471748678660671,0.5471748678660671,1.5026637007258226
-17.88673702535084,510,-1.3148074839798962,1.3148074839798962,1.5008996927537162
-17.88673702535084,513,-0.9287429739902475,0.9287429739902475,1.4988993275375937
-17.88673702535084,516,-0.6195669770583685,0.6195669770583685,1.496706628642012
-18.88673702535084,518,-1.2864570810954032,1.2864570810954032,1.4943658789699847
-18.88673702535084,520,-0.9043618410111889,0.9043618410111889,1.4919213336092105
-18.88673702535084,523,-0.639871032742298,0.639871032742298,1.4894169398752004
-18.88673702535084,525,-0.19354251845403314,0.19354251845403314,1.4868960662314943
-17.88673702535084,527,0.9935506755860137,0.9935506755860137,1.4844012416248284
-18.88673702535084,530,0.48651510300865786,0.48651510300865786,1.48197390661063
-19.88673702535084,532,-0.4024393553800274,0.4024393553800274,1.4796541774530032
-20.88673702535084,534,-0.8898322846431876,0.8898322846431876,1.4774806241724865
-21.88673702535084,537,-1.8443075704160798,1.8443075704160798,1.4754900633001184
-21.88673702535084,539,-1.3449774972504254,1.3449774972504254,1.4737173658920686
-19.88673702535084,541,0.6503591268908506,0.6503591268908506,1.4721952811873489
-18.88673702535084,544,2.1036578860861805,2.1036578860861805,1.4709542761736796
-18.88673702535084,546,2.0625666725232694,2.0625666725232694,1.4700223912597319
-20.88673702535084,549,0.4445731504207226,0.4445731504207226,1.469425112214848
-21.88673702535084,551,-0.6275871977375646,0.6275871977375646,1.4691852585209626
-22.88673702535084,553,-1.3281279962100692,1.3281279962100692,1.4693228882763623
-22.88673702535084,557,-1.4389750869195983,1.4389750869195983,1.4698552197634318
-21.88673702535084,559,-0.21682206098066567,0.21682206098066567,1.4707965697163117
-19.88673702535084,561,1.6139566341355547,1.6139566341355547,1.4721583082158074
-18.88673702535084,564,2.7764304861073024,2.7764304861073024,1.473948830029733
-19.88673702535084,566,1.5246997918137317,1.5246997918137317,1.4761735421245685
-20.88673702535084,568,0.6474067442054744,0.6474067442054744,1.4788348670198421
-20.88673702535084,571,0.2962514568373356,0.2962514568373356,1.4819322616598136
-21.88673702535084,573,-0.6101811064317072,0.6101811064317072,1.485462251508144
-22.88673702535084,575,-2.0605586033779932,2.0605586033779932,1.4894184795560568
-23.88673702535084,578,-3.001646599319071,3.001646599319071,1.4937917698355965
-22.88673702535084,580,-2.53132596521574,2.53132596521574,1.4985702048987157
-22.88673702535084,583,-2.5270439376579965,2.5270439376579965,1.5037392166603536
-20.88673702535084,585,-1.1025201367583077,1.1025201367583077,1.5092816900724497
-19.88673702535084,587,-0.17839027748813474,0.17839027748813474,1.5151780792714638
-19.88673702535084,590,-0.7635910476077551,0.7635910476077551,1.521406536031287
-19.88673702535084,592,-0.9402382431498034,0.9402382431498034,1.5279430504566787
-19.88673702535084,594,-1.5060506220136392,1.5060506220136392,1.534761603823408
-18.88673702535084,598,-0.792907787919988,0.792907787919988,1.5418343333401885
-17.88673702535084,600,-0.32140278778782705,0.32140278778782705,1.5491317084447949
-17.88673702535084,602,-0.7157787893215579,0.7157787893215579,1.5566227180978918
-16.88673702535084,605,-0.2003522626461665,0.2003522626461665,1.5642750683938207
-15.88673702535084,607,0.31106543762138583,0.31106543762138583,1.5720553896341185
-14.88673702535084,609,0.8663160975300681,0.8663160975300681,1.579929451790511
-13.88673702535084,612,1.3062175480302363,1.3062175480302363,1.5878623870300428
-12.88673702535084,614,1.886659188828432,1.886659188828432,1.5958189177128868
-11.88673702535084,616,2.285925814226724,2.285925814226724,1.603763588041624
-11.88673702535084,619,1.8674609101498207,1.8674609101498207,1.6116609973803668
-11.88673702535084,621,1.262360651255,1.262360651255,1.6194760331958158
-12.88673702535084,624,-0.18514113600151072,0.18514113600151072,1.627174101585877
-12.88673702535084,626,-0.7579737913526556,0.7579737913526556,1.6347213534005496
-10.88673702535084,628,0.7348204341759528,0.7348204341759528,1.642084903953141
-8.88673702535084,631,2.2251750916743416,2.2251750916743416,1.6492330442232739
-5.88673702535084,633,4.633142651676913,4.633142651676913,1.656135441286722
-3.8867370253508398,635,6.20612991271178,6.20612991271178,1.6627633255589698
-4.88673702535084,638,4.5154929675001565,4.5154929675001565,1.6690896624386427
-5.88673702535084,641,3.174056493273305,3.174056493273305,1.6750893061950225
-5.88673702535084,643,2.3875375344304794,2.3875375344304794,1.6807391344705462
-6.88673702535084,646,1.114729763591762,1.114729763591762,1.6860181624343644
-7.88673702535084,648,-0.7458469577504618,0.7458469577504618,1.6909076362308997
-8.88673702535084,650,-1.9858910543706414,1.9858910543706414,1.6953911057785696
-7.88673702535084,653,-1.882570239805485,1.882570239805485,1.6994544771607758
-8.88673702535084,655,-3.137130940214923,3.137130940214923,1.7030860448769292
-7.88673702535084,657,-3.024961827589951,3.024961827589951,1.706276504193381
-6.88673702535084,660,-2.3404466863992015,2.3404466863992015,1.7090189438533054
-6.88673702535084,662,-3.179029851776426,3.179029851776426,1.7113088195211286
-5.88673702535084,665,-2.589232272705301,2.589232272705301,1.7131439085414304
-4.88673702535084,667,-2.351219161508028,2.351219161508028,1.714524246842672
-4.88673702535084,669,-2.870667570172551,2.870667570172551,1.7154520490757457
-3.8867370253508398,672,-2.5447864728623264,2.5447864728623264,1.7159316133281584
-2.8867370253508398,674,-2.1674792983955924,2.1674792983955924,1.7159692119908516
-1.8867370253508398,676,-1.7575682211346806,1.7575682211346806,1.7155729705759861
-0.8867370253508398,679,-1.4589946573329948,1.4589946573329948,1.7147527364862454
0.11326297464916024,681,-0.9809101725529916,0.9809101725529916,1.7135199399005099
1.1132629746491602,684,-0.7223108706143675,0.7223108706143675,1.7118874490403408
1.1132629746491602,687,-1.1989941517420613,1.1989941517420613,1.709869422098873
2.1132629746491602,689,-0.9339218100126871,0.9339218100126871,1.707481158048352
3.1132629746491602,691,-0.38870062391526816,0.38870062391526816,1.7047389484120044
4.11326297464916,694,-0.0711907791011489,0.0711907791011489,1.7016599319155499
5.11326297464916,696,0.47936312840473916,0.47936312840473916,1.6982619537356574
6.11326297464916,699,0.8869367733265802,0.8869367733265802,1.6945634308281485
7.11326297464916,701,1.4385831526817914,1.4385831526817914,1.6905832245423447
8.11326297464916,703,1.959827780401938,1.959827780401938,1.686340521435705
8.11326297464916,706,1.5234463174507435,1.5234463174507435,1.6818547229456406
7.11326297464916,708,0.16513819048492562,0.16513819048492562,1.6771453443936863
7.11326297464916,710,-0.23336232164394444,0.23336232164394444,1.6722319236887535
8.11326297464916,713,0.5187072181212977,0.5187072181212977,1.6671339400078768
8.11326297464916,715,0.19624178901870493,0.19624178901870493,1.6618707425938417
8.11326297464916,717,0.03464192614137418,0.03464192614137418,1.6564614895846146
8.11326297464916,720,-0.1671497914567721,0.1671497914567721,1.6509250964967561
8.11326297464916,722,-0.2740742927784183,0.2740742927784183,1.645280193656762
10.11326297464916,724,1.686663367190233,1.686663367190233,1.639545091529178
11.11326297464916,728,2.6051041800002817,2.6051041800002817,1.6337377525469805
12.11326297464916,730,3.7558050495705326,3.7558050495705326,1.6278757677529627
14.11326297464916,732,5.683492252049513,5.683492252049513,1.6219763363835022
13.11326297464916,735,5.027491210686475,5.027491210686475,1.6160562465454977
11.11326297464916,737,2.968018716241879,2.968018716241879,1.6101318554039132
9.11326297464916,740,1.4818861103937846,1.4818861103937846,1.6042190677977015
8.11326297464916,742,0.4570803558122125,0.4570803558122125,1.5983333128265662
6.11326297464916,744,-0.903449721260208,0.903449721260208,1.5924895185184351
5.11326297464916,747,-1.8623930065166627,1.8623930065166627,1.5867020850431124
4.11326297464916,749,-2.1503810382942143,2.1503810382942143,1.5809848570490592
4.11326297464916,751,-2.0154942636095914,2.0154942636095914,1.5753510956591297
4.11326297464916,754,-1.2790148884022956,1.2790148884022956,1.5698134505976393
5.11326297464916,756,-0.03734638979113303,0.03734638979113303,1.5643839329111588
4.11326297464916,758,-0.30857281831520544,0.30857281831520544,1.5590738887737565
3.1132629746491602,761,-0.9689059287328752,0.9689059287328752,1.5538939748618341
2.1132629746491602,763,-1.259939430908911,1.259939430908911,1.5488541356850065
1.1132629746491602,765,-1.8514351179326267,1.8514351179326267,1.5439635830744916
1.1132629746491602,769,-1.1587717627706717,1.1587717627706717,1.539230777825113
0.11326297464916024,771,-1.72145764126303,1.72145764126303,1.5346634133290453
-0.8867370253508398,774,-2.0370554778341035,2.0370554778341035,1.530268400951964
-0.8867370253508398,776,-1.608574284154288,1.608574284154288,1.52605185686945
-1.8867370253508398,778,-1.9313023613991391,1.9313023613991391,1.5220190900836525
-1.8867370253508398,781,-1.5369804636668223,1.5369804636668223,1.518174591370163
-2.8867370253508398,783,-1.878071102812353,1.878071102812353,1.5145220229564684
-2.8867370253508398,785,-1.5286658603947594,1.5286658603947594,1.5110642087933106
-1.8867370253508398,788,0.09026458244544688,0.09026458244544688,1.5078031253359587
0.11326297464916024,790,2.3946913370139957,2.3946913370139957,1.504739892791597
1.1132629746491602,792,3.947255326376574,3.947255326376574,1.5018747667985208
0.11326297464916024,795,3.2121703588616874,3.2121703588616874,1.4992071304955001
-0.8867370253508398,797,2.6720072629357854,2.6720072629357854,1.4967354869831315
-2.8867370253508398,799,0.9049753676227811,0.9049753676227811,1.4944574523502956
-4.88673702535084,802,-0.7512265482487392,0.7512265482487392,1.4923697497291877
-3.8867370253508398,804,0.4568034854385534,0.4568034854385534,1.490468205139971
-2.8867370253508398,806,1.6678049878624628,1.6678049878624628,1.4887477460673415
-2.8867370253508398,809,1.8530847286541905,1.8530847286541905,1.4872024037344347
-4.88673702535084,812,-0.07353674107256958,0.07353674107256958,1.4858253199565552
-6.88673702535084,815,-1.9190822613187273,1.9190822613187273,1.4846087593527098
-5.88673702535084,817,-0.9713441213703361,0.9713441213703361,1.4835441276113597
-4.88673702535084,819,0.13102447705818282,0.13102447705818282,1.4826219964381222
-4.88673702535084,822,-0.01770738660721427,0.01770738660721427,1.4818321357326238
-4.88673702535084,824,0.0009079736060687571,0.0009079736060687571,1.4811635534296699
-4.88673702535084,826,-0.20376257278496251,0.20376257278496251,1.4806045432707835
-5.88673702535084,829,-1.302546558004368,1.302546558004368,1.4801427405287322
-5.88673702535084,831,-1.5217254825705133,1.5217254825705133,1.4797651854122658
-5.88673702535084,833,-1.762298819424296,1.762298819424296,1.4794583935900634
-5.88673702535084,836,-1.9649836911721996,1.9649836911721996,1.4792084330534867
-5.88673702535084,838,-2.352968056914121,2.352968056914121,1.4790010064203285
-5.88673702535084,840,-2.5258643562511707,2.5258643562511707,1.4788215377640557
-4.88673702535084,843,-2.0451031703448384,2.0451031703448384,1.478655263115935
-4.88673702535084,845,-2.192012868954649,2.192012868954649,1.4784873239128418
-2.8867370253508398,848,-0.8101434268335922,0.8101434268335922,1.4783028628309745
-1.8867370253508398,850,0.056225961640600564,0.056225961640600564,1.478087121619884
-0.8867370253508398,852,0.3765750554619065,0.3765750554619065,1.4778255406803082
0.11326297464916024,856,1.2452008497666136,1.2452008497666136,1.4775038601599324
1.1132629746491602,858,1.536141749790423,1.536141749790423,1.4771082222518133
2.1132629746491602,860,2.4041978749926423,2.4041978749926423,1.476625274210694
2.1132629746491602,863,1.6883692330403586,1.6883692330403586,1.4760422714379868
1.1132629746491602,865,0.5610908014275231,0.5610908014275231,1.4753471798983728
2.1132629746491602,867,0.8532964361390087,0.8532964361390087,1.4745287771292614
2.1132629746491602,870,0.7399021235921062,0.7399021235921062,1.4735767511348705
3.1132629746491602,872,1.0505941845568232,1.0505941845568232,1.4724817964477717
5.11326297464916,874,2.960469347581183,2.960469347581183,1.4712357065616597
7.11326297464916,877,4.297856601937638,4.297856601937638,1.469831461825512
6.11326297464916,879,3.238828710268124,3.238828710268124,1.4682633118258845
5.11326297464916,881,1.6092680489938158,1.6092680489938158,1.4665268513618952
3.1132629746491602,884,-0.41276590081866393,0.41276590081866393,1.4646190893669142
2.1132629746491602,886,-2.00462621972643,2.00462621972643,1.4625385104718802
2.1132629746491602,889,-1.9865127417810053,1.9865127417810053,1.460285129193711
3.1132629746491602,891,-1.536097078847024,1.536097078847024,1.457860536884859
4.11326297464916,893,-0.4799427161625016,0.4799427161625016,1.4552679416302867
5.11326297464916,897,0.020649095651899874,0.020649095651899874,1.4525122012995064
5.11326297464916,899,0.10425073043854513,0.10425073043854513,1.4495998499660065
5.11326297464916,901,-0.3309207627848023,0.3309207627848023,1.4465391178448055
4.11326297464916,904,-1.2397369498123083,1.2397369498123083,1.4433399447344217
5.11326297464916,906,-0.5915157531241813,0.5915157531241813,1.4400139867050965
7.11326297464916,908,1.4823708000697968,1.4823708000697968,1.4365746155130623
9.11326297464916,911,3.232041115198573,3.232041115198573,1.4330369099978082
8.11326297464916,913,2.26739842839895,2.26739842839895,1.4294176385691355
7.11326297464916,915,1.1266173479149484,1.1266173479149484,1.4257352318385847
6.11326297464916,918,0.11487429621118428,0.11487429621118428,1.4220097445071074
4.11326297464916,920,-1.9247947430451888,1.9247947430451888,1.4182628057450994
4.11326297464916,922,-1.975240321095744,1.975240321095744,1.4145175574007611
4.11326297464916,925,-1.938922871272053,1.938922871272053,1.410798579393561
3.1132629746491602,927,-3.0055913388794693,3.0055913388794693,1.4071318016301184
3.1132629746491602,930,-2.9285326153800866,2.9285326153800866,1.4035444018015935
3.1132629746491602,932,-2.9832635941850016,2.9832635941850016,1.4000646885335242
3.1132629746491602,934,-2.900633466919557,2.900633466919557,1.3967219695666213
4.11326297464916,937,-1.919901222888203,1.919901222888203,1.3935464049345287
4.11326297464916,940,-1.8565634458771318,1.8565634458771318,1.390568845438943
7.11326297464916,942,1.1697530072394526,1.1697530072394526,1.387820657053786
10.11326297464916,945,4.205846652503887,4.205846652503887,1.385333532169384
9.11326297464916,947,3.27134378336328,3.27134378336328,1.3831392888003702
8.11326297464916,949,2.2878982397856946,2.2878982397856946,1.3812696590724052
6.11326297464916,952,0.37561036607829534,0.37561036607829534,1.3797560685465986
5.11326297464916,954,-0.6143082606892206,0.6143082606892206,1.3786294082509547
5.11326297464916,956,-0.5189953113613432,0.5189953113613432,1.3779198015773324
6.11326297464916,959,0.48950671007746654,0.48950671007746654,1.377656368356057
7.11326297464916,961,1.591493427541038,1.591493427541038,1.3778669884031587
7.11326297464916,964,1.5879543987385358,1.5879543987385358,1.3785780667044216
7.11326297464916,966,1.7106480462782827,1.7106480462782827,1.3798143022447407
5.11326297464916,968,-0.3259706131261778,0.3259706131261778,1.3815984623777076
4.11326297464916,971,-1.1638874015149554,1.1638874015149554,1.3839511645793328
4.11326297464916,973,-1.2513212284538922,1.2513212284538922,1.3868906674119075
3.1132629746491602,975,-2.041690074646488,2.041690074646488,1.3904326724928018
4.11326297464916,978,-1.1806507146182952,1.1806507146182952,1.394590139206094
5.11326297464916,980,0.06409078230461307,0.06409078230461307,1.3993731138418697
6.11326297464916,983,0.8947401836847172,0.8947401836847172,1.4047885748202247
6.11326297464916,986,1.1425452228846618,1.1425452228846618,1.410840295628463
6.11326297464916,988,0.9793038643465097,0.9793038643465097,1.417528727026963
5.11326297464916,990,0.1895018155492282,0.1895018155492282,1.4248508999561358
5.11326297464916,993,0.0702653982040618,0.0702653982040618,1.4328003504342608
5.11326297464916,995,0.20887975090151514,0.20887975090151514,1.441367067586565
5.11326297464916,997,0.1580990991627517,0.1580990991627517,1.4505374657657684
5.11326297464916,1000,0.21069617296735524,0.21069617296735524,1.4602943814899563
5.11326297464916,1002,0.2300295268583817,0.2300295268583817,1.470617095642107
5.11326297464916,1005,0.20672754819291517,0.20672754819291517,1.4814813810716332
5.11326297464916,1007,0.27505319141306606,0.27505319141306606,1.492859575429984
6.11326297464916,1009,1.2056807538863055,1.2056807538863055,1.5047206787662886
6.11326297464916,1012,1.2884451310478933,1.2884451310478933,1.517030475111891
5.11326297464916,1014,0.2098397795612772,0.2098397795612772,1.5297516770115012
4.11326297464916,1017,-0.7259967663606912,0.7259967663606912,1.5428440917330382
4.11326297464916,1019,-0.7855045984947718,0.7855045984947718,1.556264807704582
4.11326297464916,1021,-0.7567932147279858,0.7567932147279858,1.5699683995536466
4.11326297464916,1025,-0.7896246598674397,0.7896246598674397,1.5839071499344761
3.1132629746491602,1027,-1.7884495520189447,1.7884495520189447,1.5980312861262265
2.1132629746491602,1030,-2.811678562049501,2.811678562049501,1.612289229190988
2.1132629746491602,1032,-2.8068532092841214,2.8068532092841214,1.6266278533263612
2.1132629746491602,1035,-2.855321167475487,2.855321167475487,1.6409927529753146
3.1132629746491602,1037,-1.8044645065745106,1.8044645065745106,1.6553285153028339
3.1132629746491602,1039,-1.9149770565219852,1.9149770565219852,1.6695789958073997
3.1132629746491602,1042,-1.7827279159085823,1.7827279159085823,1.6836875950467096
5.11326297464916,1044,0.023864688184710214,0.023864688184710214,1.6975975346470957
7.11326297464916,1047,2.2499584458608854,2.2499584458608854,1.7112521308849487
8.11326297464916,1049,2.979938023654251,2.979938023654251,1.7245950641611998
7.11326297464916,1051,2.283741670535103,2.283741670535103,1.7375706426591737
10.11326297464916,1054,4.969512779455961,4.969512779455961,1.7501240584481332
11.11326297464916,1056,6.3129904476487795,6.3129904476487795,1.762201634356441
9.11326297464916,1059,4.001495885189487,4.001495885189487,1.773751060158578
7.11326297464916,1061,2.338907413626387,2.338907413626387,1.7847216170354412
6.11326297464916,1063,1.0765851887609796,1.0765851887609796,1.7950643898521075
5.11326297464916,1067,0.36848042426974503,0.36848042426974503,1.8047324674230447
5.11326297464916,1069,0.18956180240800857,0.18956180240800857,1.813681131414579
4.11326297464916,1072,-0.5881827100806836,0.5881827100806836,1.8218680347461922
3.1132629746491602,1074,-1.6675986518719716,1.6675986518719716,1.8292533703016174
2.1132629746491602,1076,-2.5203144142361262,2.5203144142361262,1.8358000305428561
2.1132629746491602,1079,-2.5028811845283716,2.5028811845283716,1.8414737583585652
3.1132629746491602,1081,-1.4184564397988695,1.4184564397988695,1.846243289280636
4.11326297464916,1084,-0.32173601487239484,0.32173601487239484,1.8500804851207882
4.11326297464916,1086,-0.2759777466094243,0.2759777466094243,1.8529604590800999
3.1132629746491602,1088,-1.1252376502561474,1.1252376502561474,1.85486169237346
3.1132629746491602,1091,-1.0898022581217854,1.0898022581217854,1.8557661423038077
3.1132629746491602,1093,-0.9094593872705407,0.9094593872705407,1.8556593415089382
2.1132629746491602,1096,-1.85997583579593,1.85997583579593,1.8545304878450313
1.1132629746491602,1098,-2.666368765780515,2.666368765780515,1.8523725241299225
1.1132629746491602,1100,-2.5881416218533753,2.5881416218533753,1.8491822067818415
1.1132629746491602,1103,-2.385938497038907,2.385938497038907,1.844960162280744
1.1132629746491602,1105,-2.2755454217546944,2.2755454217546944,1.839710930369443
1.1132629746491602,1108,-2.0587431936758076,2.0587431936758076,1.8334429929918192
1.1132629746491602,1111,-1.9213055716589986,1.9213055716589986,1.8261687880924273
1.1132629746491602,1114,-1.6783607547198112,1.6783607547198112,1.8179047075278427
2.1132629746491602,1116,-0.5215031500307596,0.5215031500307596,1.8086710784360753
4.11326297464916,1118,1.757031574276068,1.757031574276068,1.7984921274609202
5.11326297464916,1121,2.9304040200438957,2.9304040200438957,1.787395927221939
5.11326297464916,1123,3.244489702559043,3.244489702559043,1.77541432436679
5.11326297464916,1126,3.4414784175646704,3.4414784175646704,1.7625828484951507
5.11326297464916,1128,3.7778804758818856,3.7778804758818856,1.7489406012841053
5.11326297464916,1130,4.01577187922567,4.01577187922567,1.734530125324108
4.11326297464916,1133,3.3506144602415104,3.3506144602415104,1.719397252484742
4.11326297464916,1135,3.650707976264881,3.650707976264881,1.7035909320315987
3.1132629746491602,1138,2.957916693579115,2.957916693579115,1.6871630391689731
0.11326297464916024,1140,0.3353065435714919,0.3353065435714919,1.6701681651472429
-1.8867370253508398,1142,-1.402950453080917,1.402950453080917,1.6526633904993777
-2.8867370253508398,1145,-1.948695301290168,1.948695301290168,1.6347080432959444
-3.8867370253508398,1147,-2.734686804798052,2.734686804798052,1.6163634444847639
-3.8867370253508398,1150,-2.2234728901666974,2.2234728901666974,1.5976926424308013
-1.8867370253508398,1153,-0.042981965067421524,0.042981965067421524,1.5787601387841652
-1.8867370253508398,1155,0.48897784588011034,0.48897784588011034,1.559631607851204
-1.8867370253508398,1158,0.6609081315426747,0.6609081315426747,1.5403736117027382
-1.8867370253508398,1160,1.1701316351997597,1.1701316351997597,1.5210533132425361
-2.8867370253508398,1163,0.3593011717942262,0.3593011717942262,1.501738189337932
-3.8867370253508398,1165,-0.19365341073485104,0.19365341073485104,1.4824957459207204
-3.8867370253508398,1167,0.029387006514856928,0.029387006514856928,1.4633932367554627
-4.88673702535084,1170,-0.6115417155607935,0.6115417155607935,1.4444973873556055
-5.88673702535084,1172,-1.3539557040214376,1.3539557040214376,1.4258741252867286
-6.88673702535084,1175,-2.0897544550930856,2.0897544550930856,1.4075883178339972
-6.88673702535084,1177,-1.8144973040531078,1.8144973040531078,1.389703517772099
-4.88673702535084,1179,0.36620153911731357,0.36620153911731357,1.3722817178173339
-3.8867370253508398,1182,1.6292605791586345,1.6292605791586345,1.3553831142835215
-3.8867370253508398,1184,1.7494421488788316,1.7494421488788316,1.339065880468972
-4.88673702535084,1187,0.9669353858371228,0.9669353858371228,1.3233859503132521
-5.88673702535084,1189,0.05121273297361151,0.05121273297361151,1.3083968128565617
-6.88673702535084,1191,-0.8033030254067772,0.8033030254067772,1.294149318017941
-7.88673702535084,1195,-1.7373124401784374,1.7373124401784374,1.280691494171755
-7.88673702535084,1197,-1.6766448256094315,1.6766448256094315,1.2680683779238795
-7.88673702535084,1200,-1.6218855616819534,1.6218855616819534,1.256321856387829
-7.88673702535084,1202,-1.6444144903366373,1.6444144903366373,1.2454905221936645
-7.88673702535084,1205,-1.6024711189154468,1.6024711189154468,1.2356095414658543
-7.88673702535084,1207,-1.696101005007367,1.696101005007367,1.2267105350681569
-7.88673702535084,1209,-1.6721900791176036,1.6721900791176036,1.2188214735019687
-6.88673702535084,1212,-0.8200114008441539,0.8200114008441539,1.2119665859396396
-5.88673702535084,1214,0.18199515980066738,0.18199515980066738,1.2061662839663454
-5.88673702535084,1217,-0.002909815091783452,0.002909815091783452,1.2014371006734945
-5.88673702535084,1219,-0.022479912391393186,0.022479912391393186,1.1977916457565916
-4.88673702535084,1221,0.7705894497651362,0.7705894497651362,1.1952385771883731
-4.88673702535084,1224,0.7342290776326916,0.7342290776326916,1.193782589866107
-5.88673702535084,1226,-0.48181932941629696,0.48181932941629696,1.1934244214129275
-5.88673702535084,1229,-0.5272353167156669,0.5272353167156669,1.1941608751002062
-4.88673702535084,1231,0.25930487213384373,0.25930487213384373,1.1959848596775606
-4.88673702535084,1233,0.21347152746907067,0.21347152746907067,1.1988854457387326
-3.8867370253508398,1236,1.0140766660126481,1.0140766660126481,1.202847938090131
-3.8867370253508398,1239,0.9755220413680878,0.9755220413680878,1.2078539634121142
-4.88673702535084,1242,-0.19775118444944162,0.19775118444944162,1.2138815723220546
-3.8867370253508398,1244,0.7758769778085235,0.7758769778085235,1.220905354784681
-2.8867370253508398,1246,1.64240359154769,1.64240359154769,1.2288965676769825
-1.8867370253508398,1249,2.62854647655306,2.62854647655306,1.2378232731938954
-0.8867370253508398,1251,3.5505109997122184,3.5505109997122184,1.2476504866876117
-1.8867370253508398,1254,2.5452049754928527,2.5452049754928527,1.2583403325188378
-2.8867370253508398,1256,1.5374100726503306,1.5374100726503306,1.2698522066186304
-4.88673702535084,1258,-0.46334416115735766,0.46334416115735766,1.2821429447124904
-5.88673702535084,1261,-1.3931501947461111,1.3931501947461111,1.2951669954620635
-4.88673702535084,1263,-0.38707260070477956,0.38707260070477956,1.3088765980202566
-4.88673702535084,1266,-0.24384311859185814,0.24384311859185814,1.323221963605225
-5.88673702535084,1268,-1.2191538332746732,1.2191538332746732,1.338151460683878
-6.88673702535084,1270,-2.0206595812163215,2.0206595812163215,1.3536118032594335
-6.88673702535084,1273,-1.9595140378163824,1.9595140378163824,1.3695482416277922
-7.88673702535084,1275,-2.7296200807410784,2.7296200807410784,1.3859047548603514
-7.88673702535084,1278,-2.6170897963675226,2.6170897963675226,1.4026242442434866
-6.88673702535084,1281,-1.3754959489137724,1.3754959489137724,1.4196487269837672
-5.88673702535084,1283,-0.20927396812394372,0.20927396812394372,1.4369195296529718
-4.88673702535084,1286,1.0367115919851426,1.0367115919851426,1.454377481037501
-3.8867370253508398,1288,2.241266894372721,2.241266894372721,1.471963104192432
-2.8867370253508398,1291,3.498579516045047,3.498579516045047,1.4896168075343739
-3.8867370253508398,1293,2.710673514864838,2.710673514864838,1.5072790747809908
-5.88673702535084,1295,0.9954517483073774,0.9954517483073774,1.5248906535643412
-6.88673702535084,1298,0.1768865821043759,0.1768865821043759,1.5423927426760398
-7.88673702535084,1300,-0.49443456303750727,0.49443456303750727,1.5597271780951059
-7.88673702535084,1303,-0.37924901726280347,0.37924901726280347,1.5768366180788547
-6.88673702535084,1305,1.0011754126730954,1.0011754126730954,1.5936647275742044
-5.88673702535084,1308,2.0258151790859587,2.0258151790859587,1.610156362042941
-6.88673702535084,1310,1.450786882101187,1.450786882101187,1.6262577505711748
-6.88673702535084,1312,1.3777082461914198,1.3777082461914198,1.6419166779353653
-6.88673702535084,1315,1.8218263583515013,1.8218263583515013,1.6570826651703894
-7.88673702535084,1317,0.6634011578431616,0.6634011578431616,1.6717071481238264
-7.88673702535084,1320,1.0837138148302656,1.0837138148302656,1.685743653447261
-6.88673702535084,1323,1.8700520174432953,1.8700520174432953,1.6991479714313804
-8.88673702535084,1325,0.211650777920737,0.211650777920737,1.7118783250165739
-9.88673702535084,1328,-1.0167942064805802,1.0167942064805802,1.7238955342047937
-10.88673702535084,1330,-1.8093417844722264,1.8093417844722264,1.7351631749706573
-10.88673702535084,1333,-2.014525248219138,2.014525248219138,1.745647731625289
-10.88673702535084,1335,-1.9820946772676713,1.9820946772676713,1.755318741438603
-10.88673702535084,1337,-2.142341346896302,2.142341346896302,1.764148930210928
-10.88673702535084,1340,-2.298315634895941,2.298315634895941,1.7721143374366544
-10.88673702535084,1342,-2.417199129774856,2.417199129774856,1.7791944297211164
-10.88673702535084,1345,-2.7425566010932156,2.7425566010932156,1.7853722011764461
-10.88673702535084,1347,-2.848261866500275,2.848261866500275,1.7906342596197815
-9.88673702535084,1349,-2.2973138041365724,2.2973138041365724,1.7949708975285719
-9.88673702535084,1352,-2.4320118115183957,2.4320118115183957,1.798376146873895
-8.88673702535084,1354,-1.947167452976803,1.947167452976803,1.8008478171422369
-8.88673702535084,1357,-2.1501057513809627,2.1501057513809627,1.8023875160440528
-8.88673702535084,1359,-2.6801558673809773,2.6801558673809773,1.8030006525692257
-7.88673702535084,1361,-1.9712813115897665,1.9712813115897665,1.8026964221784478
-6.88673702535084,1364,-1.4858309164197734,1.4858309164197734,1.8014877740282726
-5.88673702535084,1367,-0.8567823299102926,0.8567823299102926,1.7993913602281695
-3.8867370253508398,1370,0.6486126738347913,0.6486126738347913,1.7964274672063476
-1.8867370253508398,1372,2.2329212590296237,2.2329212590296237,1.79261992927982
0.11326297464916024,1374,3.7418864799119538,3.7418864799119538,1.7879960244627005
2.1132629746491602,1377,5.332370387183813,5.332370387183813,1.7825863524474619
2.1132629746491602,1379,4.820246147089593,4.820246147089593,1.776424694666355
1.1132629746491602,1382,3.4677408753852585,3.4677408753852585,1.7695478565044405
0.11326297464916024,1384,1.916360833515836,1.916360833515836,1.7619954921344805
-0.8867370253508398,1386,0.6566496652509599,0.6566496652509599,1.7538099129940639
0.11326297464916024,1389,1.065330752727836,1.065330752727836,1.7450358814570448
1.1132629746491602,1391,1.9107422651843355,1.9107422651843355,1.7357203916104704
2.1132629746491602,1394,2.2992577143814232,2.2992577143814232,1.7259124391842031
1.1132629746491602,1396,1.2391077427161625,1.2391077427161625,1.715662782659741
1.1132629746491602,1398,0.6427809827302333,0.6427809827302333,1.7050236975209132
0.11326297464916024,1401,-0.34970175491241484,0.34970175491241484,1.694048725566624
-0.8867370253508398,1403,-1.888720763293101,1.888720763293101,1.682792421163296
-0.8867370253508398,1406,-1.847867927535709,1.847867927535709,1.6713100962212537
-0.8867370253508398,1409,-2.2885164026476468,2.2885164026476468,1.6596575655349113
0.11326297464916024,1412,-1.249513373916681,1.249513373916681,1.6478908939924488
2.1132629746491602,1414,0.44252085643187056,0.44252085643187056,1.6360661470933475
2.1132629746491602,1416,0.44910687290098716,0.44910687290098716,1.624239146203232
2.1132629746491602,1419,0.29585497031183045,0.29585497031183045,1.6124652299577809
1.1132629746491602,1421,-0.7493047335021815,0.7493047335021815,1.6007990231337095
1.1132629746491602,1424,-0.7448591222930071,0.7448591222930071,1.5892942141174553
1.1132629746491602,1426,-0.8428476522610489,0.8428476522610489,1.5780033418547346
0.11326297464916024,1428,-1.7016612061719647,1.7016612061719647,1.5669775929063066
1.1132629746491602,1431,-0.8328655451456278,0.8328655451456278,1.556266609003432
3.1132629746491602,1433,1.4026391049627767,1.4026391049627767,1.5459183053085404
4.11326297464916,1436,2.2717978234417457,2.2717978234417457,1.5359786994463642
3.1132629746491602,1438,1.550040960825755,1.550040960825755,1.526491751273658
4.11326297464916,1440,2.4516285394548465,2.4516285394548465,1.5174992133008172
3.1132629746491602,1443,1.7304256938607363,1.7304256938607363,1.5090404916749767
3.1132629746491602,1445,1.6772797983962802,1.6772797983962802,1.5011525176845844
3.1132629746491602,1448,1.9397859847148848,1.9397859847148848,1.493869629834445
1.1132629746491602,1451,-0.08432691836545546,0.08432691836545546,1.4872234666400648
0.11326297464916024,1453,-0.8261296724069155,0.8261296724069155,1.481242870370683
-0.8867370253508398,1456,-1.8608777522350475,1.8608777522350475,1.4759538020014342
-0.8867370253508398,1458,-1.578724531100284,1.578724531100284,1.4713792675980308
-0.8867370253508398,1461,-1.667803345374824,1.667803345374824,1.4675392562713145
-1.8867370253508398,1463,-2.338836132678605,2.338836132678605,1.464450689759806
-0.8867370253508398,1465,-1.5076780966225147,1.5076780966225147,1.4621273836730577
-0.8867370253508398,1468,-1.1326907071103394,1.1326907071103394,1.4605800204625654
0.11326297464916024,1470,-0.37526704707668634,0.37526704707668634,1.4598161342542473
1.1132629746491602,1473,1.0157326631395043,1.0157326631395043,1.459840107735586
1.1132629746491602,1475,0.7355549347908186,0.7355549347908186,1.4606531812962287
-0.8867370253508398,1477,-0.9081206087617506,0.9081206087617506,1.4622534745506928
-0.8867370253508398,1480,-1.1735571977319257,1.1735571977319257,1.464636020242733
-1.8867370253508398,1482,-1.9053250803140003,1.9053250803140003,1.4677928103808078
-1.8867370253508398,1485,-2.1073672802913075,2.1073672802913075,1.4717128543174585
-1.8867370253508398,1487,-1.9638430425048223,1.9638430425048223,1.4763822483909388
-1.8867370253508398,1489,-2.074866965573064,2.074866965573064,1.4817842567193094
-0.8867370253508398,1492,-1.0632782895331272,1.0632782895331272,1.4878994027811
-0.8867370253508398,1495,-1.0840133354840507,1.0840133354840507,1.4947055715077733
-0.8867370253508398,1498,-1.181781961854826,1.181781961854826,1.5021781217053176
0.11326297464916024,1500,-0.13642823235788926,0.13642823235788926,1.5102900086704352
2.1132629746491602,1502,1.6982392336551164,1.6982392336551164,1.5190119168476552
3.1132629746491602,1505,2.77511907761052,2.77511907761052,1.5283124022927277
3.1132629746491602,1507,2.5875949619408467,2.5875949619408467,1.538158044600167
2.1132629746491602,1510,1.665701670291214,1.665701670291214,1.5485136078815123
1.1132629746491602,1512,0.49085546167877236,0.49085546167877236,1.5593422104017898
0.11326297464916024,1515,-0.4453557849985683,0.4453557849985683,1.5706055025846664
0.11326297464916024,1517,-0.591241380677868,0.591241380677868,1.5822638531953603
1.1132629746491602,1519,0.460902285110683,0.460902285110683,1.5942765435118542
1.1132629746491602,1522,0.3410046534568053,0.3410046534568053,1.6066019691714706
0.11326297464916024,1524,-0.6010267006551104,0.6010267006551104,1.6191978491667225
0.11326297464916024,1527,-0.7118314571610286,0.7118314571610286,1.6320214412091094
0.11326297464916024,1529,-0.6236156473809733,0.6236156473809733,1.645029762410742
1.1132629746491602,1531,0.25226839017734193,0.25226839017734193,1.658179813965165
2.1132629746491602,1534,1.3927707575775483,1.3927707575775483,1.6714288082475186
3.1132629746491602,1537,2.2364735004766834,2.2364735004766834,1.6847343965019062
4.11326297464916,1540,3.4400097187303444,3.4400097187303444,1.6980548950524945
4.11326297464916,1542,3.2443521671499265,3.2443521671499265,1.7113495078079337
3.1132629746491602,1544,2.5034751766083887,2.5034751766083887,1.724578542788245
4.11326297464916,1547,3.2782908429074924,3.2782908429074924,1.7377036205201604
5.11326297464916,1549,4.5648957512721795,4.5648957512721795,1.7506878723900223
4.11326297464916,1552,3.336902833745129,3.336902833745129,1.7634961273549394
1.1132629746491602,1554,0.6064558670227713,0.6064558670227713,1.7760950857646687
0.11326297464916024,1556,-0.5876396025903714,0.5876396025903714,1.7884534794272056
-1.8867370253508398,1559,-2.3853685834404743,2.3853685834404743,1.800542217398709
-1.8867370253508398,1561,-2.5106161072673276,2.5106161072673276,1.8123345171923386
-0.8867370253508398,1564,-1.418168070926723,1.418168070926723,1.8238060211504776
-1.8867370253508398,1566,-2.4526565887666827,2.4526565887666827,1.834934897694579
-2.8867370253508398,1568,-3.4950251108830668,3.4950251108830668,1.8457019271580206
-2.8867370253508398,1571,-3.4350311068183363,3.4350311068183363,1.8560905719545167
-1.8867370253508398,1573,-2.617469278030438,2.617469278030438,1.8660870309397166
-1.8867370253508398,1576,-2.475001424717597,2.475001424717597,1.8756802780012856
-0.8867370253508398,1579,-1.7872653063126671,1.7872653063126671,1.8848620851591635
-0.8867370253508398,1582,-1.5836710417575453,1.5836710417575453,1.8936270307197205
-0.8867370253508398,1584,-2.0057077640535246,2.0057077640535246,1.9019724932369966
0.11326297464916024,1586,-0.766672782625643,0.766672782625643,1.9098986321556044
1.1132629746491602,1589,-0.2713001256497063,0.2713001256497063,1.917408356044879
2.1132629746491602,1591,0.9740386830002308,0.9740386830002308,1.9245072792928564
4.11326297464916,1594,2.421843783214574,2.421843783214574,1.9312036680102063
3.1132629746491602,1596,1.6396204651274515,1.6396204651274515,1.9375083757056395
3.1132629746491602,1598,1.0832381535603832,1.0832381535603832,1.9434347690834506
2.1132629746491602,1601,0.23549810212339056,0.23549810212339056,1.9489986441429215
1.1132629746491602,1603,-1.276246357322734,1.276246357322734,1.954218132636431
0.11326297464916024,1606,-2.2274039043295604,2.2274039043295604,1.9591135988141049
0.11326297464916024,1608,-2.6462787825501946,2.6462787825501946,1.963707526207304
0.11326297464916024,1610,-2.732617761126262,2.732617761126262,1.9680243940151478
0.11326297464916024,1613,-3.0181120964230153,3.0181120964230153,1.97209054253641
2.1132629746491602,1615,-1.2588734630818643,1.2588734630818643,1.9759340270824128
5.11326297464916,1618,1.6145468974370283,1.6145468974370283,1.979584459897161
6.11326297464916,1620,2.21904928961291,2.21904928961291,1.9830728397326751
7.11326297464916,1623,3.2547748342978986,3.2547748342978986,1.9864313688125295
9.11326297464916,1626,4.728902723850603,4.728902723850603,1.989693256949494
9.11326297464916,1628,4.902889382872324,4.902889382872324,1.9928925126249677
9.11326297464916,1631,4.297877468468068,4.297877468468068,1.9960637209886336
8.11326297464916,1633,3.55899872039563,3.55899872039563,1.9992418090620547
7.11326297464916,1635,1.9478909400781084,1.9478909400781084,2.002461798910923
4.11326297464916,1638,-0.7732111269714061,0.7732111269714061,2.0057585500882156
3.1132629746491602,1640,-2.30905619603101,2.30905619603101,2.0091664931142335
2.1132629746491602,1643,-3.0834397287857973,3.0834397287857973,2.0127193560531316
2.1132629746491602,1645,-3.4733993925474875,3.4733993925474875,2.0164498863629383
2.1132629746491602,1647,-3.3542924443005995,3.3542924443005995,2.020389570229763
4.11326297464916,1650,-1.557058038692146,1.557058038692146,2.0245683516693735
6.11326297464916,1652,0.4358645510019094,0.4358645510019094,2.029014353842907
6.11326297464916,1655,0.42097000389811823,0.42097000389811823,2.033753605231073
6.11326297464916,1657,0.30744868591607744,0.30744868591607744,2.0388097734260056
7.11326297464916,1659,1.4409610980857441,1.4409610980857441,2.044203909245515
8.11326297464916,1662,2.2735768699415484,2.2735768699415484,2.0499542036547154
7.11326297464916,1665,1.4884809117080957,1.4884809117080957,2.056075759679646
7.11326297464916,1668,1.3355954991190166,1.3355954991190166,2.0625803812203753
7.11326297464916,1670,1.55802339003698,1.55802339003698,2.069476380473896
7.11326297464916,1673,1.4818712810108257,1.4818712810108257,2.0767684055459124
6.11326297464916,1675,0.6530803584552946,0.6530803584552946,2.0844572897157088
4.11326297464916,1677,-1.3095452164709886,1.3095452164709886,2.0925399236846074
2.1132629746491602,1680,-3.21733662098191,3.21733662098191,2.101009151977036
2.1132629746491602,1682,-3.065129090179323,3.065129090179323,2.109853694485178
3.1132629746491602,1685,-2.044410624564591,2.044410624564591,2.119058093996674
4.11326297464916,1687,-0.8087684815291314,0.8087684815291314,2.12860269047912
6.11326297464916,1689,1.1745651721331578,1.1745651721331578,2.138463622922525
5.11326297464916,1692,0.44434266433653846,0.44434266433653846,2.148612859583577
5.11326297464916,1694,0.4325548575003823,0.4325548575003823,2.1590182574332974
5.11326297464916,1697,0.6901767875880183,0.6901767875880183,2.1696436514396895
4.11326297464916,1699,-0.28628819014847506,0.28628819014847506,2.1804489740389865
4.11326297464916,1701,-0.0666816723924068,0.0666816723924068,2.1913904048016026
2.1132629746491602,1704,-2.0013078245912848,2.0013078245912848,2.2024205499116905
1.1132629746491602,1707,-2.8186619948635303,2.8186619948635303,2.213488650676258
4.11326297464916,1710,0.2709871481834324,0.2709871481834324,2.224540819899151
6.11326297464916,1712,2.439898514744055,2.439898514744055,2.2355203046493477
7.11326297464916,1714,3.521164763430218,3.521164763430218,2.2463677737460594
7.11326297464916,1717,3.71026688010273,3.71026688010273,2.257021628152728
5.11326297464916,1719,1.7488291241778122,1.7488291241778122,2.267418332406243
3.1132629746491602,1722,-0.011394265284399463,0.011394265284399463,2.2774927652303383
2.1132629746491602,1724,-1.0371125467628406,1.0371125467628406,2.287178587575448
3.1132629746491602,1726,0.267072653924875,0.267072653924875,2.2964086263837182
5.11326297464916,1729,2.179483132973764,2.179483132973764,2.3051152722848167
4.11326297464916,1731,1.537431836537671,1.537431836537671,2.3132308891758973
3.1132629746491602,1734,0.4174296373799511,0.4174296373799511,2.3206882333144025
2.1132629746491602,1736,-0.20371818814966636,0.20371818814966636,2.327420879243828
1.1132629746491602,1738,-1.3070174114148003,1.3070174114148003,2.333363649595903
-1.8867370253508398,1741,-3.9506568526393924,3.9506568526393924,2.3384530455242944
-3.8867370253508398,1743,-5.983518650601607,5.983518650601607,2.3426276742121415
-4.88673702535084,1746,-6.687403699505866,6.687403699505866,2.345828669649463
-3.8867370253508398,1748,-5.60776892984171,5.60776892984171,2.3480001028572777
-2.8867370253508398,1751,-4.390359334049268,4.390359334049268,2.349089378052546
-2.8867370253508398,1754,-4.178685594075566,4.178685594075566,2.3490476118664936
-0.8867370253508398,1756,-2.033625716719119,2.033625716719119,2.3478299934867635
0.11326297464916024,1759,-0.6945820298731467,0.6945820298731467,2.3453961243040173
1.1132629746491602,1761,0.40551206366078696,0.40551206366078696,2.3417103361728286
3.1132629746491602,1763,2.8490826007378756,2.8490826007378756,2.336741987675661
3.1132629746491602,1766,2.9431722926398525,2.9431722926398525,2.3304657378035616
2.1132629746491602,1768,2.459372808748353,2.459372808748353,2.3228617963231875
3.1132629746491602,1771,3.587461605765273,3.587461605765273,2.313916149936256
4.11326297464916,1773,5.144296029738029,5.144296029738029,2.3036207632725216
4.11326297464916,1776,5.337694003595342,5.337694003595342,2.291973753826754
1.1132629746491602,1778,2.9111760320918116,2.9111760320918116,2.278979540156585
-0.8867370253508398,1780,1.1842342584695382,1.1842342584695382,2.264648963004786
-2.8867370253508398,1783,-0.23557856481157824,0.23557856481157824,2.248999379444326
-3.8867370253508398,1785,-0.8898469969982652,0.8898469969982652,2.2320547305225777
-1.8867370253508398,1788,1.7020057240161834,1.7020057240161834,2.213845583048991
0.11326297464916024,1790,4.094724746535932,4.094724746535932,2.194409146091148
0.11326297464916024,1793,4.711873082486517,4.711873082486517,2.1737892625269235
-1.8867370253508398,1796,3.116687553030208,3.116687553030208,2.1520363758263406
-3.8867370253508398,1798,1.7708623274686497,1.7708623274686497,2.1292074722457164
-4.88673702535084,1801,1.1549532820727613,1.1549532820727613,2.1053659988211577
-5.88673702535084,1803,0.8474919855620338,0.8474919855620338,2.080581757826394
-5.88673702535084,1805,1.1867095930483673,1.1867095930483673,2.054930778550232
-7.88673702535084,1808,-0.09284763531254092,0.09284763531254092,2.028495167266098
-6.88673702535084,1810,1.18537814406318,1.18537814406318,2.0013629361262426
-6.88673702535084,1813,1.9164288247189996,1.9164288247189996,1.9736278114765629
-9.88673702535084,1815,-0.878590057897716,0.878590057897716,1.9453890218110323
-11.88673702535084,1817,-2.1557388942186355,2.1557388942186355,1.916751065316289
-12.88673702535084,1820,-3.0337049573530086,3.0337049573530086,1.8878234567374692
-13.88673702535084,1822,-3.338766089159445,3.338766089159445,1.8587204531494272
-14.88673702535084,1825,-4.30340445515434,4.30340445515434,1.8295607581629605
-15.88673702535084,1827,-4.659507855478445,4.659507855478445,1.8004672041671934
-13.88673702535084,1829,-2.7051645230953385,2.7051645230953385,1.7715664124360833
-13.88673702535084,1832,-2.1384901100062836,2.1384901100062836,1.7429884313002482
-13.88673702535084,1835,-2.252241100438934,2.252241100438934,1.714866353040946
-14.88673702535084,1838,-2.78577343419757,2.78577343419757,1.6873359105990164
-14.88673702535084,1840,-2.9548768781191126,2.9548768781191126,1.660535055529311
-14.88673702535084,1842,-2.5997274024856605,2.5997274024856605,1.6346035188722745
-13.88673702535084,1845,-1.8187629328201949,1.8187629328201949,1.6096823568207124
-12.88673702535084,1847,-0.5696234496638484,0.5696234496638484,1.5859134832772182
-11.88673702535084,1850,0.1586355877432788,0.1586355877432788,1.5634391916085777
-11.88673702535084,1852,0.31973754149472655,0.31973754149472655,1.5424016680426325
-11.88673702535084,1854,-0.00860431620942781,0.00860431620942781,1.5229424991594656
-10.88673702535084,1857,1.0842266772103597,1.0842266772103597,1.505202175789509
-10.88673702535084,1859,0.7054191658311667,0.7054191658311667,1.4893195953881784
-11.88673702535084,1862,-0.2601744870337119,0.2601744870337119,1.4754315646768088
-12.88673702535084,1864,-1.665829342958302,1.665829342958302,1.4636723040763657
-13.88673702535084,1866,-2.6941088610957875,2.6941088610957875,1.4541729552360292
-10.88673702535084,1869,-0.08906052978193801,0.08906052978193801,1.4470610927819336
-10.88673702535084,1871,-0.19026837481419767,0.19026837481419767,1.4424602412970269
-9.88673702535084,1874,0.4618374127995363,0.4618374127995363,1.44048939848562
-6.88673702535084,1876,3.287717385615938,3.287717385615938,1.4412625654194138
-5.88673702535084,1880,4.004162179872543,4.004162179872543,1.4448882846565019
-5.88673702535084,1882,3.780188813929025,3.780188813929025,1.4514691869212681
-6.88673702535084,1884,2.550508697009397,2.550508697009397,1.461101547059976
-6.88673702535084,1887,2.3227111788157817,2.3227111788157817,1.4738748502226329
-6.88673702535084,1889,2.114336878895894,2.114336878895894,1.489871369613769
-7.88673702535084,1892,0.9388135251807608,0.9388135251807608,1.5091657575716033
-8.88673702535084,1894,-0.28729775747869324,0.28729775747869324,1.5318246520693095
-9.88673702535084,1896,-1.3628337967247006,1.3628337967247006,1.5579063009383525
-9.88673702535084,1899,-1.6349729584433494,1.6349729584433494,1.587460206184869
-7.88673702535084,1901,0.41302440523482997,0.41302440523482997,1.6205267907261898
-5.88673702535084,1904,2.089041502145266,2.089041502145266,1.6571370897675537
-6.88673702535084,1906,1.2524431053483647,1.2524431053483647,1.6973124689233734
-6.88673702535084,1908,0.895584434493361,0.895584434493361,1.741064371086267
-7.88673702535084,1911,0.13744751143134537,0.13744751143134537,1.7883940939571308
-8.88673702535084,1913,-1.215763725235797,1.215763725235797,1.8392926000531797
-8.88673702535084,1916,-0.949909676676336,0.949909676676336,1.8937403608776042
-6.88673702535084,1918,0.7416123901218776,0.7416123901218776,1.9517072367439559
-5.88673702535084,1921,1.9740965764646183,1.9740965764646183,2.0131523935160596
-4.88673702535084,1924,2.7427867526162153,2.7427867526162153,2.0780242572870993
-4.88673702535084,1926,2.8943022298136905,2.8943022298136905,2.1462605078148695
-4.88673702535084,1929,2.7550898258314653,2.7550898258314653,2.21778811139117
-4.88673702535084,1931,2.79481834666025,2.79481834666025,2.292523393784707
-5.88673702535084,1933,1.7431067785733902,1.7431067785733902,2.370372153956428
-6.88673702535084,1936,0.6571742422831768,0.6571742422831768,2.4512298193558237
-7.88673702535084,1938,-0.32668538759271293,0.32668538759271293,2.5349816436929298
-8.88673702535084,1941,-1.5400809447197936,1.5400809447197936,2.6215029480687364
-9.88673702535084,1943,-2.483087936794726,2.483087936794726,2.710659406189478
-8.88673702535084,1945,-1.8195305673925493,1.8195305673925493,2.8023073741064595
-7.88673702535084,1948,-0.749509366214097,0.749509366214097,2.8962942645948435
-7.88673702535084,1950,-1.2013335137834198,1.2013335137834198,2.9924589659867418
-8.88673702535084,1953,-2.1445869532891306,2.1445869532891306,3.090632305004022
-9.88673702535084,1955,-3.6994950934336277,3.6994950934336277,3.1906375528425492
-10.88673702535084,1957,-4.682547934369486,4.682547934369486,3.2922909734324506
-9.88673702535084,1960,-4.319809833781663,4.319809833781663,3.3954024125109856
-8.88673702535084,1963,-3.3718970132248884,3.3718970132248884,3.499775925992388
-8.88673702535084,1966,-4.060602565661117,4.060602565661117,3.605210446135677
-7.88673702535084,1968,-3.212164654809458,3.212164654809458,3.711500484139082
-3.8867370253508398,1971,0.08413281848512266,0.08413281848512266,3.8184368679279936
-3.8867370253508398,1973,-0.1900343825780788,0.1900343825780788,3.925807513963043
-3.8867370253508398,1975,-0.8787210483171997,0.8787210483171997,4.033398231796635
-2.8867370253508398,1978,-0.27760789204033043,0.27760789204033043,4.140993559776054
-2.8867370253508398,1980,-0.9420665401310864,0.9420665401310864,4.24837762971242
-2.8867370253508398,1983,-1.435490626051045,1.435490626051045,4.355335057578143
3.1132629746491602,1985,3.9053043869247825,3.9053043869247825,4.461651856466928
9.11326297464916,1987,9.379225604022066,9.379225604022066,4.567116367243042
9.11326297464916,1990,8.685814291015674,8.685814291015674,4.671520201634601
8.11326297464916,1992,7.203048929672021,7.203048929672021,4.7746591921559665
5.11326297464916,1995,3.4394848864226244,3.4394848864226244,4.876334343311662
2.1132629746491602,1997,0.05925015798342059,0.05925015798342059,4.9763527789813775
0.11326297464916024,1999,-2.7756116660104393,2.7756116660104393,5.074528681420645
-1.8867370253508398,2002,-5.041075129938665,5.041075129938665,5.170684217583329
-1.8867370253508398,2004,-5.891852044234599,5.891852044234599,5.264650448325238
-1.8867370253508398,2008,-6.08962874117259,6.08962874117259,5.356268215623515
0.11326297464916024,2010,-4.846911618322512,4.846911618322512,5.4453890025302165
0.11326297464916024,2012,-5.068365974002408,5.068365974002408,5.5318757603557875
1.1132629746491602,2015,-4.598261874546772,4.598261874546772,5.615603697531543
2.1132629746491602,2017,-3.940940653449708,3.940940653449708,5.696461024603284
4.11326297464916,2020,-2.13080076642688,2.13080076642688,5.774349649752312
5.11326297464916,2022,-1.6531719771911295,1.6531719771911295,5.849185819068822
2.1132629746491602,2024,-4.454582044370375,4.454582044370375,5.920900695476549
1.1132629746491602,2027,-6.143106044518564,6.143106044518564,5.989440869703347
5.11326297464916,2029,-1.5942258317119258,1.5942258317119258,6.054768796059303
16.11326297464916,2032,8.643106749396427,8.643106749396427,6.1168631451499484
26.11326297464916,2034,19.425101261489566,19.425101261489566,6.175719065140737
34.11326297464916,2036,26.735486355983788,26.735486355983788,6.231348342929906
29.11326297464916,2039,22.58931386144269,22.58931386144269,6.283779456882596
20.11326297464916,2041,13.130600797476756,13.130600797476756,6.333057514081278
11.11326297464916,2044,4.899697588123998,4.899697588123998,6.379244067522461
4.11326297464916,2046,-2.2079862389591423,2.2079862389591423,6.422416811828953
-1.8867370253508398,2049,-7.631956524915384,7.631956524915384,6.462669158884925
-5.88673702535084,2052,-11.339757924330794,11.339757924330794,6.5001096965942295
-7.88673702535084,2054,-12.994328150082884,12.994328150082884,6.534861534678608
-9.88673702535084,2057,-14.332898890806327,14.332898890806327,6.567061541645426
-8.88673702535084,2059,-13.187832758870947,13.187832758870947,6.5968594774310025
-7.88673702535084,2062,-11.25166718761474,11.25166718761474,6.624417027098691
-4.88673702535084,2064,-8.231315797299244,8.231315797299244,6.649906742282599
-1.8867370253508398,2066,-4.149413934192733,4.149413934192733,6.6735108985469225
2.1132629746491602,2069,-0.16230493168755533,0.16230493168755533,6.695420278156802
9.11326297464916,2071,7.932338659878799,7.932338659878799,6.7158328886449485
17.11326297464916,2074,15.967632177751755,15.967632177751755,6.734952627860508
15.11326297464916,2076,14.961363792289529,14.961363792289529,6.752987906046003
9.11326297464916,2078,9.099283626848056,9.099283626848056,6.7701502353777245
5.11326297464916,2081,5.911567398896837,5.911567398896837,6.786652797814496
1.1132629746491602,2083,2.1719429751387453,2.1719429751387453,6.802709003075978
-2.8867370253508398,2086,-1.2394352845783136,1.2394352845783136,6.818531049650668
-2.8867370253508398,2088,-0.8715610621780348,0.8715610621780348,6.8343285023570735
-1.8867370253508398,2091,0.4887464475264278,0.4887464475264278,6.85030689989065
-2.8867370253508398,2094,-0.08137733613868636,0.08137733613868636,6.86666640505644
-5.88673702535084,2096,-2.920427557431511,2.920427557431511,6.883600509228813
-7.88673702535084,2099,-4.497762791910846,4.497762791910846,6.901294801205445
-7.88673702535084,2101,-4.480549781196984,4.480549781196984,6.919925809209024
-7.88673702535084,2103,-4.147453821339014,4.147453821339014,6.939659923497257
-8.88673702535084,2106,-5.203874208560869,5.203874208560869,6.960652405980252
-9.88673702535084,2108,-6.0394545846116525,6.0394545846116525,6.983046492419714
-6.88673702535084,2111,-3.103497068217705,3.103497068217705,7.006972592124175
-5.88673702535084,2113,-2.162423874744756,2.162423874744756,7.032547589484833
-6.88673702535084,2115,-3.193486870119541,3.193486870119541,7.059874251148818
-8.88673702535084,2118,-5.486729895569999,5.486729895569999,7.089040742006378
-11.88673702535084,2120,-8.484570559548866,8.484570559548866,7.1201202524145595
-9.88673702535084,2123,-6.972369812174783,6.972369812174783,7.153170738268032
-4.88673702535084,2125,-1.9761203552881677,1.9761203552881677,7.188234774842588
-2.8867370253508398,2127,-0.5800195900248752,0.5800195900248752,7.225339524885711
-2.8867370253508398,2130,-0.6485606784349747,0.6485606784349747,7.264496821084998
6.11326297464916,2132,7.719755685751734,7.719755685751734,7.305703362524446
10.11326297464916,2136,11.539109313033164,11.539109313033164,7.348941023879252
5.11326297464916,2138,5.943537254460082,5.943537254460082,7.3941772750726535
0.11326297464916024,2140,0.6436980898962243,0.6436980898962243,7.441365708300975
-3.8867370253508398,2143,-3.9001117782036188,3.9001117782036188,7.490446668920732
-0.8867370253508398,2145,-1.2745063191637427,1.2745063191637427,7.541347986469292
7.11326297464916,2148,6.1982474573660635,6.1982474573660635,7.593985801664843
9.11326297464916,2150,7.835298205524584,7.835298205524584,7.648265484441168
8.11326297464916,2152,6.2559510200704205,6.2559510200704205,7.704082637094197
8.11326297464916,2155,6.005557410927039,6.005557410927039,7.761324175738409
9.11326297464916,2157,6.3013130796812336,6.3013130796812336,7.819869482652259
6.11326297464916,2160,3.2459672551199907,3.2459672551199907,7.8795916216891975
-0.8867370253508398,2162,-4.626791914805405,4.626791914805405,7.940358608583726
-6.88673702535084,2165,-10.456143057636837,10.456143057636837,8.002034727549038
-10.88673702535084,2167,-15.484220978378186,15.484220978378186,8.06448188502021
-5.88673702535084,2169,-10.12845624727807,10.12845624727807,8.127560990897107
7.11326297464916,2172,1.7663375634033587,1.7663375634033587,8.191133357455872
9.11326297464916,2174,4.200860717745255,4.200860717745255,8.255062106344022
14.11326297464916,2178,8.139244489460692,8.139244489460692,8.319213574478432
17.11326297464916,2180,11.518305861699679,11.518305861699679,8.383458709781115
19.11326297464916,2182,12.615374183757254,12.615374183757254,8.4476744473867
17.11326297464916,2185,10.830165646861005,10.830165646861005,8.51174505656312
10.11326297464916,2187,3.1458170795260605,3.1458170795260605,8.575563448500759
2.1132629746491602,2190,-4.846437064378168,4.846437064378168,8.639032435408298
-4.88673702535084,2192,-12.331924384206687,12.331924384206687,8.70206593170982
-8.88673702535084,2194,-16.499874789292058,16.499874789292058,8.764590088237092
-7.88673702535084,2197,-15.874825965449183,15.874825965449183,8.826544350167806
-0.8867370253508398,2199,-9.137934429146878,9.137934429146878,8.887882429468474
13.11326297464916,2202,4.479385607569141,4.479385607569141,8.948573183114862
26.11326297464916,2204,17.206342709717454,17.206342709717454,9.008601389287119
29.11326297464916,2206,19.717188182553272,19.717188182553272,9.067968414647748
29.11326297464916,2209,19.47840040247663,19.47840040247663,9.12669276650392
27.11326297464916,2211,16.844833689836754,16.844833689836754,9.18481052442791
21.11326297464916,2214,10.615314422908089,10.615314422908089,9.242375647187623
13.11326297464916,2216,1.8755290054605425,1.8755290054605425,9.299460152633584
2.1132629746491602,2219,-9.43453261436426,9.43453261436426,9.356154170018309
-1.8867370253508398,2222,-14.186593729005013,14.186593729005013,9.412565865507954
-3.8867370253508398,2224,-16.693298375417182,16.693298375417182,9.468821242160017
-1.8867370253508398,2227,-15.3562437447477,15.3562437447477,9.525063815704435
1.1132629746491602,2229,-13.146942826987866,13.146942826987866,9.581454167674453
2.1132629746491602,2231,-12.663123826645904,12.663123826645904,9.638169378145921
4.11326297464916,2234,-11.753868690389272,11.753868690389272,9.695402341456655
3.1132629746491602,2236,-13.135861051199067,13.135861051199067,9.753360969460774
5.11326297464916,2239,-12.463270166294965,12.463270166294965,9.81226728789427
10.11326297464916,2241,-7.783333064168981,7.783333064168981,9.87235643225215
26.11326297464916,2244,6.767887014950702,6.767887014950702,9.933875550253944
37.11326297464916,2246,17.415741651961955,17.415741651961955,9.99708261849109
37.11326297464916,2248,15.967951854590478,15.967951854590478,10.062245181154157
37.11326297464916,2251,15.510029947546256,15.510029947546256,10.129639018927612
35.11326297464916,2253,12.154566059601908,12.154566059601908,10.199546756511458
27.11326297464916,2256,3.5634822202413443,3.5634822202413443,10.272256417988542
20.11326297464916,2258,-4.656955183383332,4.656955183383332,10.348059940229513
12.11326297464916,2260,-13.358092063985126,13.358092063985126,10.427251655256669
11.11326297464916,2264,-15.447166416737904,15.447166416737904,10.510126752633617
20.11326297464916,2266,-7.197476826934006,7.197476826934006,10.596979732609606
26.11326297464916,2269,-2.1894798093814067,2.1894798093814067,10.688102860363237
27.11326297464916,2271,-1.91270957227591,1.91270957227591,10.783784631522957
26.11326297464916,2273,-3.8513009669213245,3.8513009669213245,10.8843082589441
28.11326297464916,2276,-2.4783624355466314,2.4783624355466314,10.989950190036637
37.11326297464916,2278,5.599714703850287,5.599714703850287,11.10097866260904
46.11326297464916,2281,14.118118243163654,14.118118243163654,11.217652305459477
60.11326297464916,2283,27.187808965427585,27.187808965427585,11.340218788194179
61.11326297464916,2285,27.879262384594217,27.879262384594217,11.468913523427377
48.11326297464916,2288,13.926934805767537,13.926934805767537,11.60395842413838
34.11326297464916,2290,-0.20603617767786453,0.20603617767786453,11.745560719860727
23.11326297464916,2293,-12.173542006367052,12.173542006367052,11.893911837218905
31.11326297464916,2295,-4.169074105205718,4.169074105205718,12.04918635210353
39.11326297464916,2297,2.8960143916005316,2.8960143916005316,12.21154102156768
36.11326297464916,2300,-0.05893432856701031,0.05893432856701031,12.381113903165256
42.11326297464916,2302,5.138591250875903,5.138591250875903,12.558023568289121
38.11326297464916,2306,1.0741969109257112,1.0741969109257112,12.742368414390672
28.11326297464916,2308,-9.465532448887348,9.465532448887348,12.93422607889797
23.11326297464916,2310,-14.800836972237446,14.800836972237446,13.133652955382997
16.11326297464916,2313,-21.96937580585722,21.96937580585722,13.340683810377016
16.11326297464916,2315,-22.686753795590434,22.686753795590434,13.555331497588051
32.11326297464916,2318,-6.455601969633564,6.455601969633564,13.777586765502829
52.11326297464916,2320,12.437650138936824,12.437650138936824,14.007418154548423
67.11326297464916,2323,27.97989079128771,27.97989079128771,14.244771980756628
66.11326297464916,2325,25.601809051886427,25.601809051886427,14.48957240363193
50.11326297464916,2327,10.253944969035556,10.253944969035556,14.74172157652475
46.11326297464916,2330,4.820406455823505,4.820406455823505,15.001099878611287
42.11326297464916,2332,1.3246043669436296,1.3246043669436296,15.267566228676815
55.11326297464916,2335,13.07470557285575,13.07470557285575,15.540958481663434
56.11326297464916,2337,14.206208861492023,14.206208861492023,15.821093908649255
33.11326297464916,2339,-9.685377591128335,9.685377591128335,16.107769759581064
17.11326297464916,2342,-26.04116891749142,26.04116891749142,16.400763906375648
9.11326297464916,2344,-34.51582147886984,34.51582147886984,16.69983556263623
19.11326297464916,2348,-25.33937623617709,25.33937623617709,17.004726075596608
40.11326297464916,2350,-4.448571601087906,4.448571601087906,17.31515978624967
59.11326297464916,2352,13.385792498618187,13.385792498618187,17.63084495491102
64.11326297464916,2355,18.52223355853701,18.52223355853701,17.951474751052288
49.11326297464916,2357,2.2000563319125046,2.2000563319125046,18.276728307139766
33.11326297464916,2360,-13.564107501461017,13.564107501461017,18.60627183600498
33.11326297464916,2362,-14.833578230103525,14.833578230103525,18.939759810232225
40.11326297464916,2364,-7.645748624238934,7.645748624238934,19.276836200564524
42.11326297464916,2367,-6.6507710292185225,6.6507710292185225,19.617135768607277
26.11326297464916,2369,-22.646965992632264,22.646965992632264,19.96028540726255
11.11326297464916,2372,-38.187434882556126,38.187434882556126,20.305905520429317
11.11326297464916,2374,-38.48490150768279,38.48490150768279,20.65361143178932
29.11326297464916,2376,-20.383831540615624,20.383831540615624,21.003014811606693
54.11326297464916,2379,3.922906742845761,3.922906742845761,21.35372511101798
58.11326297464916,2381,8.810090950883165,8.810090950883165,21.7053509949739
62.11326297464916,2384,11.652945978735572,11.652945978735572,22.057501766490848
71.11326297464916,2386,22.423706873279606,22.423706873279606,22.409788774911863
94.11326297464916,2388,43.77839110198674,43.77839110198674,22.761826799352775
114.11326297464916,2392,66.44672954993653,66.44672954993653,23.113235396505093
95.11326297464916,2394,45.37819541591215,45.37819541591215,23.46364020104664
50.11326297464916,2397,3.812969166634833,3.812969166634833,23.81267416830242
36.11326297464916,2399,-12.462701272318352,12.462701272318352,24.15997875253581
38.11326297464916,2402,-6.594070666238874,6.594070666238874,24.50520501869316
38.11326297464916,2404,-8.676778486231363,8.676778486231363,24.848014688214175
48.11326297464916,2406,5.0946320351901555,5.0946320351901555,25.188081119427945
74.11326297464916,2409,29.74108921402638,29.74108921402638,25.525090220609602
79.11326297464916,2411,37.78857873739504,37.78857873739504,25.858741290278473
102.11326297464916,2414,60.6871937905876,60.6871937905876,26.18874777601006
95.11326297464916,2416,55.48373235938451,55.48373235938451,26.51483794108171
64.11326297464916,2418,25.934639948570716,25.934639948570716,26.836755428678163
37.11326297464916,2421,-0.7355597481222027,0.7355597481222027,27.15425971630447
10.11326297464916,2423,-24.822381531833585,24.822381531833585,27.46712645724638
-7.88673702535084,2426,-43.75024757287842,43.75024757287842,27.775147709259624
-25.88673702535084,2428,-57.877493750243204,57.877493750243204,28.07813205183836
-14.88673702535084,2430,-48.485274682544635,48.485274682544635,28.375904593181946
-24.88673702535084,2434,-54.421002514563845,54.421002514563845,28.66830686844724
-14.88673702535084,2436,-45.96444482371944,45.96444482371944,28.955196633448892
21.11326297464916,2439,-6.494772564406489,6.494772564406489,29.236447562398645
38.11326297464916,2441,9.689042926722465,9.689042926722465,29.511948863214634
24.11326297464916,2443,-2.0073099975509976,2.0073099975509976,29.781604827754176
-1.8867370253508398,2446,-27.701576010475442,27.701576010475442,30.045334335652527
-15.88673702535084,2448,-40.78564539839012,40.78564539839012,30.30307032890548
-13.88673702535084,2451,-37.30845298952131,37.30845298952131,30.554759271014262
-3.8867370253508398,2453,-27.63094268240244,27.63094268240244,30.800360601356406
14.11326297464916,2455,-7.253932218492352,7.253932218492352,31.039846193817187
34.11326297464916,2458,11.636172305603319,11.636172305603319,31.273199828452714
41.11326297464916,2460,21.418519984732804,21.418519984732804,31.50041668470983
34.11326297464916,2463,13.13858485107167,13.13858485107167,31.72150286322699
12.11326297464916,2465,-6.2383387007592175,6.2383387007592175,31.936474940264265
1.1132629746491602,2467,-18.085724050408842,18.085724050408842,32.1453595549714
-10.88673702535084,2470,-28.073810126980845,28.073810126980845,32.348193025548596
12.11326297464916,2472,-5.091702774239983,5.091702774239983,32.54502098607038
52.11326297464916,2476,36.13362698438187,36.13362698438187,32.7358980315324
90.11326297464916,2478,75.00030685457165,75.00030685457165,32.920887354892166
110.11326297464916,2481,95.61355293644495,95.61355293644495,33.10006035701278
88.11326297464916,2483,75.06568676754394,75.06568676754394,33.273496209592906
67.11326297464916,2485,54.52389236247718,54.52389236247718,33.44128135392936
44.11326297464916,2488,33.03998674303327,33.03998674303327,33.60350892516859
31.11326297464916,2490,20.894899070038704,20.894899070038704,33.76027810075726
20.11326297464916,2493,10.9474107122183,10.9474107122183,33.91169338002484
-3.8867370253508398,2495,-11.3721374424147,11.3721374424147,34.05786380688121
-18.88673702535084,2497,-26.120779253527328,26.120779253527328,34.19890214884955
-32.88673702535084,2500,-37.456796431672956,37.456796431672956,34.33492404382093
-17.88673702535084,2502,-23.056379793234314,23.056379793234314,34.466047122476596
21.11326297464916,2505,19.444772688277574,19.444772688277574,34.592390110814264
45.11326297464916,2507,42.22036804465297,42.22036804465297,34.714071914512495
8.11326297464916,2509,9.170772000780591,9.170772000780591,34.831210684874485
-46.88673702535084,2512,-47.26293556961882,47.26293556961882,34.94392286429901
-81.88673702535084,2514,-78.37742120416735,78.37742120416735,35.05232220746101
-98.88673702535084,2518,-96.53514032940069,96.53514032940069,35.15651877313849
-97.88673702535084,2520,-92.2240839269436,92.2240839269436,35.25661788215791
-37.88673702535084,2522,-32.67451025710618,32.67451025710618,35.35271904083154
18.11326297464916,2525,25.678799904177126,25.678799904177126,35.44491483691865
23.11326297464916,2527,31.20666830166319,31.20666830166319,35.53328982456353
-6.88673702535084,2530,2.434588897383918,2.434588897383918,35.6179194224829
-27.88673702535084,2532,-17.012526102053993,17.012526102053993,35.69886885360268
-15.88673702535084,2534,-4.829075518448601,4.829075518448601,35.776192154290825
-27.88673702535084,2537,-14.432903223627758,14.432903223627758,35.84993127842324
-46.88673702535084,2539,-33.99251169651605,33.99251169651605,35.92011531686885
-11.88673702535084,2542,3.8829750724558565,3.8829750724558565,35.986759847510655
38.11326297464916,2544,53.03420558594084,53.03420558594084,36.04986642551666
37.11326297464916,2546,54.916421738901064,54.916421738901064,36.10942221893446
-1.8867370253508398,2549,15.294992980535778,15.294992980535778,36.16539979128085
-33.88673702535084,2551,-14.302780531539169,14.302780531539169,36.217757030959746
-23.88673702535084,2554,-4.230299564765064,4.230299564765064,36.26643722676738
-4.88673702535084,2556,16.308584264316025,16.308584264316025,36.31136928805198
36.11326297464916,2560,58.36484727473302,58.36484727473302,36.35246810576173
58.11326297464916,2562,80.87626899253041,80.87626899253041,36.389635046613165
35.11326297464916,2564,59.93222295775243,59.93222295775243,36.42275856879628
20.11326297464916,2567,44.530364886166545,44.530364886166545,36.45171494641347
-10.88673702535084,2569,16.31515990651062,16.31515990651062,36.47636909224814
-43.88673702535084,2572,-17.64419799535487,17.64419799535487,36.49657547309316
-71.88673702535084,2574,-42.60536126801205,42.60536126801205,36.51217911596395
-84.88673702535084,2576,-56.63721484011319,56.63721484011319,36.52301670513468
-77.88673702535084,2579,-46.88981911036282,46.88981911036282,36.52891776933001
-67.88673702535084,2581,-37.5133914637448,37.5133914637448,36.52970595745224
-52.88673702535084,2584,-20.53925527213677,20.53925527213677,36.52520040151161
-52.88673702535084,2586,-20.40088608228931,20.40088608228931,36.51521716688492
-71.88673702535084,2588,-38.49648384034795,38.49648384034795,36.49957079129465
-53.88673702535084,2591,-19.480278251244407,19.480278251244407,36.478075913800744
-43.88673702535084,2593,-9.652639987620457,9.652639987620457,36.4505489935596
-13.88673702535084,2596,22.042500439889483,22.042500439889483,36.41681011574025
24.11326297464916,2598,59.11489215635096,59.11489215635096,36.37668487914643
2.1132629746491602,2600,39.001472782125724,39.001472782125724,36.330006356882876
-6.88673702535084,2604,28.867603472838155,28.867603472838155,36.276617118482335
-21.88673702535084,2606,15.353052444728508,15.353052444728508,36.21637130027841
-36.88673702535084,2609,-0.45814924462010964,0.45814924462010964,36.149136710468596
-60.88673702535084,2611,-23.78704798346749,23.78704798346749,36.07479695486436
-77.88673702535084,2613,-41.04490742907677,41.04490742907677,35.993253567294005
-63.88673702535084,2616,-27.189650159897226,27.189650159897226,35.904428124871636
-57.88673702535084,2618,-21.112689990986617,21.112689990986617,35.80826432410166
-17.88673702535084,2621,18.386701675583026,18.386701675583026,35.70472999036733
45.11326297464916,2623,81.18754486071413,81.18754486071413,35.59381899097314
27.11326297464916,2625,63.097258738346255,63.097258738346255,35.47555302010956
-40.88673702535084,2628,-6.146762220936418,6.146762220936418,35.34998322314735
-82.88673702535084,2630,-47.04753341362186,47.04753341362186,35.217191628480776
-111.88673702535084,2633,-78.93943372367123,78.93943372367123,35.07729235762531
-110.88673702535084,2635,-75.188852104865,75.188852104865,34.930432587093655
-94.88673702535084,2637,-63.86488532251279,63.86488532251279,34.77679323830248
-81.88673702535084,2640,-46.56243830012557,46.56243830012557,34.61658937570229
-32.88673702535084,2642,-3.5463445032474077,3.5463445032474077,34.4500702993311
11.11326297464916,2646,45.61814483184869,45.61814483184869,34.27751932477299
70.11326297464916,2648,98.3040014011456,98.3040014011456,34.0992532487757
35.11326297464916,2650,68.2865733030345,68.2865733030345,33.91562150172141
-28.88673702535084,2653,-1.2272018776331812,1.2272018776331812,33.727004990390945
-71.88673702535084,2655,-40.415906560229374,40.415906560229374,33.53381463824411
-84.88673702535084,2658,-57.27638945729913,57.27638945729913,33.336489635654345
-67.88673702535084,2660,-38.18095547085824,38.18095547085824,33.1354954169628
10.11326297464916,2663,37.87165741893509,37.87165741893509,32.9313213836981
61.11326297464916,2665,89.34975123231652,89.34975123231652,32.72447839495155
17.11326297464916,2667,44.911806383780714,44.911806383780714,32.51549604815827
-18.88673702535084,2670,8.446114685960058,8.446114685960058,32.30491977695823
1.1132629746491602,2672,28.642694318401897,28.642694318401897,32.09330779723021
21.11326297464916,2675,48.18660771078351,48.18660771078351,31.88122793676307
-13.88673702535084,2677,13.035965053764668,13.035965053764668,31.669254386807232
-39.88673702535084,2679,-12.567293430784527,12.567293430784527,31.457964414462218
-35.88673702535084,2682,-9.776394053106653,9.776394053106653,31.247935074329337
-40.88673702535084,2684,-13.110870829391109,13.110870829391109,31.039739956596808
-39.88673702535084,2688,-14.585566151429035,14.585566151429035,30.833946006360424
-41.88673702535084,2690,-13.780411049057001,13.780411049057001,30.6311104453564
-16.88673702535084,2692,7.784611457994146,7.784611457994146,30.431777822933267
-17.88673702535084,2695,10.16162445076137,10.16162445076137,30.23647721861649
-14.88673702535084,2697,9.399796767224178,9.399796767224178,30.04571961417519
-11.88673702535084,2700,15.58827622192778,15.58827622192778,29.85999544854167
-26.88673702535084,2702,-2.796424946085935,2.796424946085935,29.679772364185112
-59.88673702535084,2704,-33.49793113610982,33.49793113610982,29.505493148726853
-85.88673702535084,2707,-61.937911299568626,61.937911299568626,29.337573870978282
-82.88673702535084,2709,-58.01142173014176,58.01142173014176,29.176402206758475
-61.88673702535084,2712,-38.17471106243849,38.17471106243849,29.02233594788311
-53.88673702535084,2714,-30.831450350214887,30.831450350214887,28.87570168856985
-38.88673702535084,2716,-15.62778113670792,15.62778113670792,28.736793686827138
-15.88673702535084,2719,5.167702970192625,5.167702970192625,28.60587290235622
-5.88673702535084,2721,16.63269839996617,16.63269839996617,28.483166215080487
17.11326297464916,2724,36.10294255173186,36.10294255173186,28.368865828648428
11.11326297464916,2726,32.58952412072439,32.58952412072439,28.263128861480794
-13.88673702535084,2728,3.08190212420692,3.08190212420692,28.166077125406034
-29.88673702535084,2732,-9.736517637294305,9.736517637294305,28.07779708988359
-40.88673702535084,2734,-25.78765554384751,25.78765554384751,27.998340028396694
-54.88673702535084,2737,-36.30865760241591,36.30865760241591,27.927722341956194
-41.88673702535084,2739,-28.39445179206072,28.39445179206072,27.865926052338622
-38.88673702535084,2741,-22.082954943293775,22.082954943293775,27.812899455390887
-15.88673702535084,2744,-3.641784872416392,3.641784872416392,27.768557923375635
33.11326297464916,2746,48.00360060658406,48.00360060658406,27.732784844807515
52.11326297464916,2749,63.51766061693721,63.51766061693721,27.705432689730404
7.11326297464916,2751,20.053759950105817,20.053759950105817,27.68632418774097
-13.88673702535084,2754,-2.951271269466103,2.951271269466103,27.675253606180124
-42.88673702535084,2756,-31.780755294865408,31.780755294865408,27.671988117358172
-43.88673702535084,2758,-33.173090654513715,33.173090654513715,27.676269245429715
7.11326297464916,2761,16.675081922984695,16.675081922984695,27.687814384108623
21.11326297464916,2763,31.67642001238709,31.67642001238709,27.706318375730763
34.11326297464916,2766,42.55701386021618,42.55701386021618,27.731455141261012
59.11326297464916,2768,69.43536713868787,69.43536713868787,27.762879350414906
43.11326297464916,2770,50.89933653679227,50.89933653679227,27.800228121484256
-4.88673702535084,2774,5.004825401953866,5.004825401953866,27.843122742342047
-13.88673702535084,2776,-6.39001737199202,6.39001737199202,27.891170407694247
-11.88673702535084,2779,-2.63909774395146,2.63909774395146,27.943965971672796
9.11326297464916,2781,16.489215296962247,16.489215296962247,28.00109371704425
24.11326297464916,2783,32.53209806248743,32.53209806248743,28.062129141341902
21.11326297464916,2786,28.285134143339786,28.285134143339786,28.126640756906692
30.11326297464916,2788,37.552443681329486,37.552443681329486,28.194191898114347
5.11326297464916,2791,11.76589788410135,11.76589788410135,28.264342526524917
-29.88673702535084,2793,-23.580557699208253,23.580557699208253,28.33665102364322
-28.88673702535084,2795,-23.228733377646904,23.228733377646904,28.41067596072591
-30.88673702535084,2798,-25.911363494382,25.911363494382,28.485977834662204
-41.88673702535084,2800,-37.77652587190278,37.77652587190278,28.56212075798026
-55.88673702535084,2803,-52.49849419217542,52.49849419217542,28.638674089838343
-48.88673702535084,2805,-46.88348393382586,46.88348393382586,28.715213994200568
-34.88673702535084,2807,-33.38486735812471,33.38486735812471,28.791324911975305
-44.88673702535084,2810,-45.48949954036671,45.48949954036671,28.86660093598662
-59.88673702535084,2812,-60.58476368629073,60.58476368629073,28.940647080863485
-46.88673702535084,2816,-50.46716203324923,50.46716203324923,29.013080443582083
-10.88673702535084,2818,-14.079493896037118,14.079493896037118,29.083531254251366
-0.8867370253508398,2820,-7.6294083852848615,7.6294083852848615,29.15164382088054
-9.88673702535084,2823,-15.807698407151452,15.807698407151452,29.217077375710396
29.11326297464916,2825,19.245607074963917,19.245607074963917,29.27950683281561
32.11326297464916,2828,23.34796885061172,23.34796885061172,29.33862346621699
3.1132629746491602,2830,-9.61412665749483,9.61412665749483,29.39413551529197
-23.88673702535084,2833,-35.442453242225994,35.442453242225994,29.44576872118685
-26.88673702535084,2835,-41.98474845962849,41.98474845962849,29.49326679509606
1.1132629746491602,2837,-12.986647554787387,12.986647554787387,29.536391816990115
36.11326297464916,2840,19.35714426801419,19.35714426801419,29.57492456186445
83.11326297464916,2842,66.89805256619931,66.89805256619931,29.60866474986023
84.11326297464916,2845,66.61766243951948,66.61766243951948,29.637431216342954
34.11326297464916,2847,16.387986484161807,16.387986484161807,29.661061998309158
13.11326297464916,2849,-4.071214736930973,4.071214736930973,29.679414335135235
7.11326297464916,2852,-11.30987285624829,11.30987285624829,29.692364584685468
51.11326297464916,2854,35.2838229161541,35.2838229161541,29.699808058335606
86.11326297464916,2857,68.06081322952025,68.06081322952025,29.701658778679253
69.11326297464916,2860,55.52871186634948,55.52871186634948,29.69784916201701
55.11326297464916,2862,38.75509652297989,38.75509652297989,29.68832962662769
27.11326297464916,2865,16.434548912462255,16.434548912462255,29.67306812925355
55.11326297464916,2867,41.921257870522524,41.921257870522524,29.65204963591489
50.11326297464916,2870,42.80164207075201,42.80164207075201,29.625275537154085
7.11326297464916,2872,-1.4860458352762151,1.4860458352762151,29.592763020530796
-22.88673702535084,2874,-26.480343255559994,26.480343255559994,29.554544414564774
-14.88673702535084,2877,-17.716948480400465,17.716948480400465,29.51066651882773
14.11326297464916,2879,14.557643670115851,14.557643670115851,29.46118993447446
16.11326297464916,2882,19.82926489278548,19.82926489278548,29.40618840796798
4.11326297464916,2884,8.916972660264891,8.916972660264891,29.345748198365314
-23.88673702535084,2886,-13.319788251152453,13.319788251152453,29.279967475724966
-60.88673702535084,2889,-51.41220769374686,51.41220769374686,29.20895575513821
-64.88673702535084,2891,-47.64222815067426,47.64222815067426,29.13283336776336
-52.88673702535084,2894,-38.48253139485469,38.48253139485469,29.051730967772947
-64.88673702535084,2896,-41.559460145835715,41.559460145835715,28.965789073352205
-43.88673702535084,2898,-24.421847009370307,24.421847009370307,28.875157641213494
-46.88673702535084,2902,-18.373168835007167,18.373168835007167,28.77999567671112
-20.88673702535084,2904,3.53951664194798,3.53951664194798,28.6804708841549
-9.88673702535084,2907,22.773792533310992,22.773792533310992,28.5767593631974
-14.88673702535084,2909,14.079286037847574,14.079286037847574,28.469045356675448
-39.88673702535084,2911,-4.119169759833081,4.119169759833081,28.357521053154375
-61.88673702535084,2914,-29.15274894681454,29.15274894681454,28.24238644430504
-78.88673702535084,2916,-40.97723841096767,40.97723841096767,28.12384923382553
-49.88673702535084,2919,-14.443831848196604,14.443831848196604,28.002124791416634
-7.88673702535084,2921,31.2720888374005,31.2720888374005,27.87743614287457
5.11326297464916,2924,42.056399570850985,42.056399570850985,27.750013986045406
7.11326297464916,2926,46.6503710238839,46.6503710238839,27.620096722024478
-7.88673702535084,2928,29.361445321635554,29.361445321635554,27.487930491300567
-37.88673702535084,2931,1.133114734068081,1.133114734068081,27.35376920563314
-39.88673702535084,2933,-3.3882354129964636,3.3882354129964636,27.217874568163417
-59.88673702535084,2936,-22.29463243375936,22.29463243375936,27.08051607550465
-81.88673702535084,2938,-47.000809918646496,47.000809918646496,26.94197099504041
-112.88673702535084,2940,-77.57247570431119,77.57247570431119,26.802524308436393
-94.88673702535084,2944,-62.29624256914016,62.29624256914016,26.662468610295416
-41.88673702535084,2946,-9.539546944430597,9.539546944430597,26.522103951306992
-18.88673702535084,2949,10.880172376713587,10.880172376713587,26.3817376190012
-17.88673702535084,2951,11.03579680583735,11.03579680583735,26.24168385464603
-46.88673702535084,2953,-20.317057486127723,20.317057486127723,26.102263508941537
-67.88673702535084,2956,-42.59665278306457,42.59665278306457,25.963803640172937
-25.88673702535084,2958,-2.710501671379518,2.710501671379518,25.826637057042912
26.11326297464916,2961,47.79369701137472,47.79369701137472,25.691101806411794
37.11326297464916,2963,56.898594487385424,56.898594487385424,25.55754060493928
15.11326297464916,2965,33.40254333623957,33.40254333623957,25.426300213484648
-5.88673702535084,2968,10.714081705751843,10.714081705751843,25.29773075424408
-15.88673702535084,2970,-0.617699227470137,0.617699227470137,25.172184972976275
-8.88673702535084,2973,4.9289352695598545,4.9289352695598545,25.050017451268197
16.11326297464916,2975,28.83450613070814,28.83450613070814,24.931583774841616
31.11326297464916,2977,42.71154257946743,42.71154257946743,24.817239662538835
21.11326297464916,2980,31.807777640402293,31.807777640402293,24.707340057860545
-13.88673702535084,2982,-3.8111933419144783,3.8111933419144783,24.602238182701704
-25.88673702535084,2985,-16.69174212811272,16.69174212811272,24.502284552338505
14.11326297464916,2988,23.422842252963026,23.422842252963026,24.40782595114647
34.11326297464916,2990,42.3215028653402,42.3215028653402,24.319204368577303
5.11326297464916,2993,14.389360885013575,14.389360885013575,24.236755894088297
-8.88673702535084,2995,-1.167688875322888,1.167688875322888,24.16080956874963
6.11326297464916,2998,15.973141418730657,15.973141418730657,24.09168619080445
31.11326297464916,3000,38.82935120797204,38.82935120797204,24.029697072058607
35.11326297464916,3003,45.98698553496884,45.98698553496884,23.97514274086719
7.11326297464916,3005,15.293335219876173,15.293335219876173,23.92831158601473
-41.88673702535084,3007,-29.78977179042271,29.78977179042271,23.889478435208787
-74.88673702535084,3010,-65.82742329637406,65.82742329637406,23.85890306281695
-88.88673702535084,3012,-75.560320292062,75.560320292062,23.836828623396656
-63.88673702535084,3015,-53.64511493714246,53.64511493714246,23.823480010329863
-58.88673702535084,3017,-44.46505104662626,44.46505104662626,23.819062143359027
-18.88673702535084,3019,-7.340505844826701,7.340505844826701,23.823758195573184
-6.88673702535084,3022,8.427231659118238,8.427231659118238,23.83772777818432
-26.88673702535084,3024,-14.12446897860869,14.12446897860869,23.86110510786473
-8.88673702535084,3027,7.075770149820162,7.075770149820162,23.893997184703885
4.11326297464916,3030,17.838744674353975,17.838744674353975,23.936482008859265
0.11326297464916024,3032,16.405953839391927,16.405953839391927,23.98860686187714
-22.88673702535084,3035,-8.510279568897634,8.510279568897634,24.050386675805196
-48.88673702535084,3037,-32.70762998813982,32.70762998813982,24.121802510426956
-16.88673702535084,3040,-2.137386587910112,2.137386587910112,24.20280015648003
17.11326297464916,3042,32.60882011316535,32.60882011316535,24.29328888059427
21.11326297464916,3044,36.01793098610881,36.01793098610881,24.393140325891455
-23.88673702535084,3047,-9.697537237842186,9.697537237842186,24.502187580787854
-54.88673702535084,3049,-40.021960689234,40.021960689234,24.620224427706322
-37.88673702535084,3052,-25.56470895977578,25.56470895977578,24.747004783228725
-23.88673702535084,3054,-9.292447565225917,9.292447565225917,24.882242341512683
1.1132629746491602,3056,11.173920870942016,11.173920870942016,25.025610433201965
4.11326297464916,3059,18.134952613035903,18.134952613035903,25.176742112165144
4.11326297464916,3061,11.749542512124375,11.749542512124375,25.335230481707953
-4.88673702535084,3064,8.185874098563442,8.185874098563442,25.50062927017348
-6.88673702535084,3066,-1.5840045927106292,1.5840045927106292,25.672453663324465
-20.88673702535084,3069,-9.189335469235102,9.189335469235102,25.850181397916376
-23.88673702535084,3072,-20.58875124069974,20.58875124069974,26.033254117407246
-18.88673702535084,3074,-8.988696173213649,8.988696173213649,26.22107898678045
22.11326297464916,3077,23.914882975852734,23.914882975852734,26.413030559335194
5.11326297464916,3079,12.871209764289645,12.871209764289645,26.608452884554048
-18.88673702535084,3082,-17.99156365504127,17.99156365504127,26.806661843022898
-33.88673702535084,3084,-28.428927801884228,28.428927801884228,27.006947691732496
0.11326297464916024,3086,0.662935211528076,0.662935211528076,27.20857780073057
37.11326297464916,3089,40.367705455802174,40.367705455802174,27.41079955990776
46.11326297464916,3091,46.76848892465087,46.76848892465087,27.612843432664324
24.11326297464916,3094,25.536144527817918,25.536144527817918,27.813926131502807
-22.88673702535084,3096,-21.809018290500596,21.809018290500596,28.013253889735363
-60.88673702535084,3098,-60.69771178061016,60.69771178061016,28.210025803844445
-42.88673702535084,3101,-41.1759939400619,41.1759939400619,28.40343722226942
28.11326297464916,3103,27.796800925011084,27.796800925011084,28.592683158036486
53.11326297464916,3106,55.6126175868055,55.6126175868055,28.776961704788796
27.11326297464916,3108,27.044953562156167,27.044953562156167,28.955477438565843
-3.8867370253508398,3110,-0.45596927316337776,0.45596927316337776,29.127444790728735
-13.88673702535084,3113,-13.011146020606942,13.011146020606942,29.292091380016636
-6.88673702535084,3116,-2.382764354567758,2.382764354567758,29.44866129303075
26.11326297464916,3119,28.523117548353216,28.523117548353216,29.596418301683435
60.11326297464916,3121,65.81528083443212,65.81528083443212,29.734649003297527
51.11326297464916,3123,55.52003631572032,55.52003631572032,29.862665865410282
-14.88673702535084,3126,-7.900968346487861,7.900968346487861,29.97981015499209
-64.88673702535084,3128,-58.16563261927165,58.16563261927165,30.08545473208719
-79.88673702535084,3131,-71.57910644190639,71.57910644190639,30.179006690388977
-42.88673702535084,3133,-33.701348562698016,33.701348562698016,30.259909830533456
17.11326297464916,3136,26.74019432147454,26.74019432147454,30.32764695533958
35.11326297464916,3138,46.72767145823693,46.72767145823693,30.381741980161653
15.11326297464916,3140,26.025129355298287,26.025129355298287,30.421761855621547
-14.88673702535084,3143,-1.0628061503889956,1.0628061503889956,30.44731830321035
-41.88673702535084,3145,-29.755690066157776,29.755690066157776,30.45806936601856
-73.88673702535084,3148,-58.23368220279853,58.23368220279853,30.45372077718892
-67.88673702535084,3150,-54.64060682063906,54.64060682063906,30.434027147884372
-38.88673702535084,3152,-21.907634472528713,21.907634472528713,30.39879297566249
6.11326297464916,3155,20.325996173377344,20.325996173377344,30.34787347459026
19.11326297464916,3158,36.83348117592092,36.83348117592092,30.281175230438205
0.11326297464916024,3161,15.103087777069344,15.103087777069344,30.198656686454633
-15.88673702535084,3163,1.9437290167328465,1.9437290167328465,30.100328466150465
-38.88673702535084,3165,-23.340933679636397,23.340933679636397,29.986253538987388
-56.88673702535084,3168,-39.58234888419279,39.58234888419279,29.85654723315328
-44.88673702535084,3170,-29.042998641963276,29.042998641963276,29.711377097040454
-36.88673702535084,3173,-20.6850670505475,20.6850670505475,29.55096260834468
9.11326297464916,3175,24.92312405047824,24.92312405047824,29.375574727827072
43.11326297464916,3177,57.7836544259213,57.7836544259213,29.185535293937576
29.11326297464916,3180,44.43492595534635,44.43492595534635,28.981216254208043
4.11326297464916,3182,17.042465791781286,17.042465791781286,28.763038729509717
-22.88673702535084,3185,-8.640301259550629,8.640301259550629,28.531471908378077
-58.88673702535084,3187,-47.688193559266026,47.688193559266026,28.28703177042142
-79.88673702535084,3189,-67.3698738125941,67.3698738125941,28.030279639226393
-13.88673702535084,3192,-4.271228970497782,4.271228970497782,27.761820565670064
27.11326297464916,3194,37.31027884010472,37.31027884010472,27.482301543136206
20.11326297464916,3197,28.29705144781997,28.29705144781997,27.1924095577444
8.11326297464916,3200,15.605475050039855,15.605475050039855,26.89286947875758
14.11326297464916,3203,20.906197262138875,20.906197262138875,26.584441795681112
52.11326297464916,3205,56.80352483112331,56.80352483112331,26.26792020889023
42.11326297464916,3207,47.40700653011096,47.40700653011096,25.94412908041207
-0.8867370253508398,3210,1.1850688344610028,1.1850688344610028,25.61392075156716
-21.88673702535084,3212,-18.308361942412567,18.308361942412567,25.27817273528375
-24.88673702535084,3215,-25.0457661995976,25.0457661995976,24.937784792785973
-42.88673702535084,3217,-41.259560660618476,41.259560660618476,24.593675905706622
-47.88673702535084,3219,-49.791549178532165,49.791549178532165,24.246781154733938
-25.88673702535084,3222,-26.36672044334042,26.36672044334042,23.89804851558146
28.11326297464916,3224,24.939689599465076,24.939689599465076,23.548435583835957
42.11326297464916,3227,39.534325264151974,39.534325264151974,23.198906242455667
4.11326297464916,3229,0.06007541335797306,0.06007541335797306,22.850427288478038
-12.88673702535084,3231,-17.34557407317181,17.34557407317181,22.503965037790394
11.11326297464916,3234,6.446416223503578,6.446416223503578,22.160481928057568
7.11326297464916,3236,1.1994577555800658,1.1994577555800658,21.820933139847806
-25.88673702535084,3239,-31.008885206721033,31.008885206721033,21.486263254589566
-25.88673702535084,3241,-32.680838538746485,32.680838538746485,21.157402965579205
-10.88673702535084,3244,-16.35586055579567,16.35586055579567,20.83526585569532
12.11326297464916,3247,5.072093115446705,5.072093115446705,20.520745253735196
17.11326297464916,3249,11.429798407774856,11.429798407774856,20.214711180713497
21.11326297464916,3252,14.422974898158692,14.422974898158692,19.918007397341892
23.11326297464916,3254,17.42595749460171,17.42595749460171,19.631448563204916
7.11326297464916,3256,1.276390250147616,1.276390250147616,19.355817516591156
-3.8867370253508398,3259,-9.284900713988769,9.284900713988769,19.09186268200992
-22.88673702535084,3261,-27.475338782569793,27.475338782569793,18.840295610489356
-14.88673702535084,3264,-19.660688732946504,19.660688732946504,18.601788655798753
35.11326297464916,3266,32.07671973106743,32.07671973106743,18.37697278791715
60.11326297464916,3268,56.28617462403689,56.28617462403689,18.166435543973716
40.11326297464916,3271,38.85561430440299,38.85561430440299,17.970719117165807
18.11326297464916,3273,15.502342703935577,15.502342703935577,17.790318586192246
2.1132629746491602,3276,2.7813804125414396,2.7813804125414396,17.62568029140195
1.1132629746491602,3278,-0.08665172487118866,0.08665172487118866,17.47720036813331
-5.88673702535084,3280,-3.2414664096576544,3.2414664096576544,17.34522345085947
-2.8867370253508398,3283,-2.562219013280738,2.562219013280738,17.230041562460283
2.1132629746491602,3286,6.673339186178973,6.673339186178973,17.13189320126702
-7.88673702535084,3289,-6.005959900295439,6.005959900295439,17.05096263547894
-16.88673702535084,3291,-10.597730109508955,10.597730109508955,16.987379411141987
14.11326297464916,3293,17.497125480278697,17.497125480278697,16.941218076673827
15.11326297464916,3296,22.832053299494603,22.832053299494603,16.912498124170472
4.11326297464916,3298,8.84930404368631,8.84930404368631,16.901184145634247
-16.88673702535084,3301,-8.120460404937315,8.120460404937315,16.907186200962904
-19.88673702535084,3303,-14.059325996685285,14.059325996685285,16.930360393879834
-15.88673702535084,3306,-6.505210876645884,6.505210876645884,16.970509651450058
-33.88673702535084,3308,-27.332516189656676,27.332516189656676,17.027384701947053
-47.88673702535084,3310,-38.3494877961623,38.3494877961623,17.100685244644158
-22.88673702535084,3313,-16.047277478427844,16.047277478427844,17.190061304153645
-11.88673702535084,3315,-2.6629850496437886,2.6629850496437886,17.295114761889334
-13.88673702535084,3318,-7.247310755027609,7.247310755027609,17.415401058186944
-27.88673702535084,3320,-19.432901173934393,19.432901173934393,17.550431059745218
-6.88673702535084,3322,-0.9432042948595001,0.9432042948595001,17.69967308724688
9.11326297464916,3325,16.37442883541095,16.37442883541095,17.862555096997177
-15.88673702535084,3328,-11.10282923754293,11.10282923754293,18.03846700873824
-30.88673702535084,3331,-25.204112076775512,25.204112076775512,18.226763170024256
-11.88673702535084,3333,-8.63492680760822,8.63492680760822,18.42676494592339
-1.8867370253508398,3335,1.853072590203416,1.853072590203416,18.637763421505273
-4.88673702535084,3338,-3.3879546219632983,3.3879546219632983,18.85902220355839
-6.88673702535084,3340,-5.444832515384269,5.444832515384269,19.089780306812017
-17.88673702535084,3343,-18.17921865797346,18.17921865797346,19.32925510803366
-28.88673702535084,3345,-30.07073464763571,30.07073464763571,19.576645348678735
-23.88673702535084,3347,-25.850128006116357,25.850128006116357,19.831134163958335
-12.88673702535084,3350,-16.93277108410746,16.93277108410746,20.0918921142042
8.11326297464916,3352,4.671306508592786,4.671306508592786,20.358080193737603
49.11326297464916,3355,42.164912344587435,42.164912344587435,20.62885279272702
98.11326297464916,3357,93.33199668054462,93.33199668054462,20.90336058797669
98.11326297464916,3359,88.52139390027469,88.52139390027469,21.180753339309554
47.11326297464916,3362,40.97092495528844,40.97092495528844,21.460182570842086
2.1132629746491602,3364,-9.523493671671275,9.523493671671275,21.740804122807827
-15.88673702535084,3367,-23.5989119312619,23.5989119312619,22.021780569137007
30.11326297464916,3369,17.29778340770839,17.29778340770839,22.30228350551532
34.11326297464916,3372,24.52477682870458,24.52477682870458,22.58149571896514
24.11326297464916,3375,11.069090667977886,11.069090667977886,22.858613252538046
7.11326297464916,3377,-4.582702448959033,4.582702448959033,23.132847378940653
3.1132629746491602,3380,-9.352819121313424,9.352819121313424,23.403426496188583
-10.88673702535084,3382,-24.674846286239784,24.674846286239784,23.669597956985438
-32.88673702535084,3384,-44.28481690307932,44.28481690307932,23.93062984137374
-7.88673702535084,3387,-23.420785457454244,23.420785457454244,24.185812679788803
-1.8867370253508398,3389,-12.098388716483978,12.098388716483978,24.43446113199682
11.11326297464916,3392,-5.52401497429357,5.52401497429357,24.67591562708665
11.11326297464916,3394,1.898326586962721,1.898326586962721,24.90954397003017
32.11326297464916,3397,15.191709572678793,15.191709572678793,25.134742919909616
31.11326297464916,3399,22.524223656280718,22.524223656280718,25.350939742872978
9.11326297464916,3401,-7.240085624058473,7.240085624058473,25.557593739551702
-21.88673702535084,3404,-30.27212139938853,30.27212139938853,25.754197743066698
2.1132629746491602,3406,-12.903106922393327,12.903106922393327,25.940279580639512
17.11326297464916,3409,8.557434605552059,8.557434605552059,26.115403489365573
4.11326297464916,3411,-8.957273634006748,8.957273634006748,26.279171474620878
-24.88673702535084,3414,-33.8744071557601,33.8744071557601,26.431224597438774
6.11326297464916,3417,-4.602085384991469,4.602085384991469,26.57124417468598
70.11326297464916,3419,60.58118431656982,60.58118431656982,26.69895287312169
72.11326297464916,3422,63.95011359027678,63.95011359027678,26.81411567610908
11.11326297464916,3424,1.0892238949952007,1.0892238949952007,26.91654070074871
-40.88673702535084,3426,-46.50861911909118,46.50861911909118,27.006079844145845
-51.88673702535084,3429,-62.18355178868708,62.18355178868708,27.082629240131617
-44.88673702535084,3431,-48.16738841945617,48.16738841945617,27.14612951092179
-27.88673702535084,3434,-38.08787905557083,38.08787905557083,27.19656580134218
-23.88673702535084,3436,-25.173453786333624,25.173453786333624,27.23396758690973
51.11326297464916,3438,41.476903528033986,41.476903528033986,27.258408251469465
88.11326297464916,3441,88.39733565807171,88.39733565807171,27.27000443440762
68.11326297464916,3443,59.53385671811716,59.53385671811716,27.26891515113019
1.1132629746491602,3446,2.5543476159856873,2.5543476159856873,27.255340694392572
-14.88673702535084,3448,-21.974658960588663,21.974658960588663,27.229521329309957
-24.88673702535084,3450,-22.625229838671533,22.625229838671533,27.19173580077075
-21.88673702535084,3453,-27.16129515632652,27.16129515632652,27.142299676263416
-14.88673702535084,3456,-12.033741924700546,12.033741924700546,27.081563548519963
1.1132629746491602,3459,-2.159363567985965,2.159363567985965,27.009911121670655
1.1132629746491602,3461,4.434026374289631,4.434026374289631,26.92775720305571
34.11326297464916,3463,32.89847057262944,32.89847057262944,26.83554562067155
43.11326297464916,3466,46.867037159343965,46.867037159343965,26.733747083184998
35.11326297464916,3468,35.88532323658549,35.88532323658549,26.622856996078188
6.11326297464916,3471,10.334755775031628,10.334755775031628,26.503393245174422
-12.88673702535084,3473,-10.314008484823164,10.314008484823164,26.375893958405154
-27.88673702535084,3475,-23.123838013205326,23.123838013205326,26.240915257476928
-27.88673702535084,3478,-23.783902308494167,23.783902308494167,26.09902901143809
-21.88673702535084,3480,-16.521297667787074,16.521297667787074,25.950820603157574
-35.88673702535084,3483,-30.554590497195406,30.554590497195406,25.796886717907647
-36.88673702535084,3485,-30.935133473608396,30.935133473608396,25.637833161504965
-23.88673702535084,3488,-17.597876117010596,17.597876117010596,25.474272714259225
0.11326297464916024,3490,6.509206496628968,6.509206496628968,25.306823026323315
16.11326297464916,3492,23.14083773981192,23.14083773981192,25.1361045596802
1.1132629746491602,3495,7.69052202392311,7.69052202392311,24.96273858138435
14.11326297464916,3497,21.685680661061383,21.685680661061383,24.787345211296877
44.11326297464916,3501,50.55093696662662,50.55093696662662,24.610541525485115
41.11326297464916,3503,48.98827983224395,48.98827983224395,24.432939714376083
5.11326297464916,3505,11.120213585095499,11.120213585095499,24.25514529364126
-34.88673702535084,3508,-27.066252142438742,27.066252142438742,24.077755366398627
-50.88673702535084,3510,-45.511400702385714,45.511400702385714,23.901356937388552
-49.88673702535084,3513,-42.60772595931662,42.60772595931662,23.72652528214376
-12.88673702535084,3515,-8.252593506047353,8.252593506047353,23.553822376121968
5.11326297464916,3517,11.285286000827345,11.285286000827345,23.38379539064398
15.11326297464916,3520,18.933747546313395,18.933747546313395,23.21697526444218
21.11326297464916,3522,25.62945360922971,25.62945360922971,23.05387536086831
-0.8867370253508398,3525,2.009913888003061,2.009913888003061,22.89499022062354
-38.88673702535084,3527,-36.46166639996846,36.46166639996846,22.740794418617565
-34.88673702535084,3529,-33.11644439320085,33.11644439320085,22.591741532085678
4.11326297464916,3532,4.187711582095823,4.187711582095823,22.44826322593099
16.11326297464916,3534,16.453664594917846,16.453664594917846,22.3107684606513
-2.8867370253508398,3537,-5.2370383863310614,5.2370383863310614,22.179642828049342
-16.88673702535084,3539,-18.336545055534707,18.336545055534707,22.05524801955477
-2.8867370253508398,3542,-7.5933289616753274,7.5933289616753274,21.937921430734693
10.11326297464916,3545,6.541883309531125,6.541883309531125,21.827975903446095
32.11326297464916,3547,25.18514531465177,25.18514531465177,21.725699604556688
19.11326297464916,3550,13.21529933480058,13.21529933480058,21.63135603757226
-6.88673702535084,3552,-15.908863838411593,15.908863838411593,21.54518418105044
-24.88673702535084,3554,-33.12405557771736,33.12405557771736,21.46739874559323
-8.88673702535084,3557,-19.911330057632217,19.911330057632217,21.398190539688915
30.11326297464916,3559,19.7137156267572,19.7137156267572,21.337726933775397
29.11326297464916,3562,16.17917967917731,16.17917967917731,21.286152411599396
0.11326297464916024,3564,-12.153613766294452,12.153613766294452,21.24358919803982
-22.88673702535084,3567,-37.55462206184942,37.55462206184942,21.21013795259837
-9.88673702535084,3569,-23.707477013783908,23.707477013783908,21.185878517445236
40.11326297464916,3571,24.038908798927338,24.038908798927338,21.170870708498033
61.11326297464916,3574,46.00366803381941,46.00366803381941,21.1651551380745
57.11326297464916,3576,40.11803337573955,40.11803337573955,21.168754058531675
32.11326297464916,3579,15.929445842679176,15.929445842679176,21.181672218014107
15.11326297464916,3581,-2.223176004539578,2.223176004539578,21.203897721890346
5.11326297464916,3584,-11.930174837816022,11.930174837816022,21.23540289616311
18.11326297464916,3587,1.0080378147736457,1.0080378147736457,21.27614515095933
27.11326297464916,3589,9.484375770899483,9.484375770899483,21.32606784212737
11.11326297464916,3592,-5.284737178382402,5.284737178382402,21.385101126980246
10.11326297464916,3594,-7.74046159310511,7.74046159310511,21.45316280709
3.1132629746491602,3596,-12.241488197244921,12.241488197244921,21.530159147492288
33.11326297464916,3599,15.462024495669201,15.462024495669201,21.61598565809498
84.11326297464916,3601,69.99876367910139,69.99876367910139,21.71052781977383
87.11326297464916,3604,70.11101400290435,70.11101400290435,21.81366173514339
42.11326297464916,3606,29.318942688076095,29.318942688076095,21.925254683437128
-4.88673702535084,3608,-20.824395064260127,20.824395064260127,22.045165561440946
-48.88673702535084,3611,-60.37105771755276,60.37105771755276,22.173245197742407
-30.88673702535084,3613,-45.41793209327501,45.41793209327501,22.309336533773163
-23.88673702535084,3616,-34.13312216492849,34.13312216492849,22.453274670557757
-41.88673702535084,3618,-54.77385380051447,54.77385380051447,22.60488678481273
-22.88673702535084,3620,-32.007017755319566,32.007017755319566,22.763991922925175
9.11326297464916,3623,-2.006833636613095,2.006833636613095,22.930400686513057
5.11326297464916,3625,-3.0210832993557197,3.0210832993557197,23.103914828075556
20.11326297464916,3629,10.773924462093404,10.773924462093404,23.284326778681635
31.11326297464916,3631,23.806339090270303,23.806339090270303,23.471419130753166
27.11326297464916,3634,19.467327114243027,19.467327114243027,23.66496409766115
31.11326297464916,3636,24.47306856159174,24.47306856159174,23.864722969214668
36.11326297464916,3638,29.979228234303704,29.979228234303704,24.070445579678903
22.11326297464916,3641,15.99636738931951,15.99636738931951,24.281869803458846
-1.8867370253508398,3643,-6.776955922565579,6.776955922565579,24.498721092927227
1.1132629746491602,3646,-4.585671625019584,4.585671625019584,24.720712072526943
7.11326297464916,3648,3.118551428973336,3.118551428973336,24.947542202495335
-18.88673702535084,3650,-24.212696905426043,24.212696905426043,25.178897523657813
-45.88673702535084,3653,-49.407833923608784,49.407833923608784,25.414450491636053
-47.88673702535084,3655,-52.809306422449225,52.809306422449225,25.6538599053755
-21.88673702535084,3658,-25.40925437246045,25.40925437246045,25.896770932634933
13.11326297464916,3660,8.687650654480333,8.687650654480333,26.142815235155595
16.11326297464916,3662,12.114529769028923,12.114529769028923,26.39161119830973
19.11326297464916,3665,15.286524811893049,15.286524811893049,26.64276427229329
32.11326297464916,3667,27.2520760120213,27.2520760120213,26.89586743255687
39.11326297464916,3671,35.91065715251295,35.91065715251295,27.150501765833155
17.11326297464916,3673,11.185832514636797,11.185832514636797,27.40623718591095
-15.88673702535084,3675,-18.590952123449807,18.590952123449807,27.66263328146622
-20.88673702535084,3678,-27.849452537498017,27.849452537498017,27.919240297131246
-12.88673702535084,3680,-15.38764752108807,15.38764752108807,28.175600248039
33.11326297464916,3683,25.356392658767085,25.356392658767085,28.431248166790514
49.11326297464916,3685,46.40869170423352,46.40869170423352,28.685713480199013
44.11326297464916,3687,35.91431776022792,35.91431776022792,28.93852151168996
-0.8867370253508398,3690,-4.20329265566278,4.20329265566278,29.189195104361616
-0.8867370253508398,3692,-9.19483493661326,9.19483493661326,29.437256359659006
31.11326297464916,3695,26.88442489528778,26.88442489528778,29.682228486830038
29.11326297464916,3697,20.907867809753935,20.907867809753935,29.923637757661897
1.1132629746491602,3699,-4.161126051570989,4.161126051570989,30.16101555889362
-16.88673702535084,3702,-24.93738869898919,24.93738869898919,30.393900531747207
-28.88673702535084,3704,-35.176475841194204,35.176475841194204,30.62184078494902
-5.88673702535084,3707,-13.871409939419905,13.871409939419905,30.844396164629153
21.11326297464916,3709,13.955736902776197,13.955736902776197,31.061140561707408
42.11326297464916,3713,34.018253672117254,34.018253672117254,31.271664235008206
41.11326297464916,3715,33.28689301936505,33.28689301936505,31.475576126258293
-1.8867370253508398,3717,-10.286668542176713,10.286668542176713,31.67250614103687
-40.88673702535084,3720,-49.20113595759952,49.20113595759952,31.862107367807777
-53.88673702535084,3722,-62.73728549374968,62.73728549374968,32.04405820570038
-38.88673702535084,3725,-47.57821402627569,47.57821402627569,32.21806437096293
-8.88673702535084,3727,-18.244322519162576,18.244322519162576,32.38386075245604
-1.8867370253508398,3729,-10.92699992638602,10.92699992638602,32.541213088538605
41.11326297464916,3732,31.281363198002044,31.281363198002044,32.68991944038846
97.11326297464916,3734,87.69436502607502,87.69436502607502,32.8298114384717
94.11326297464916,3737,83.90334259498724,83.90334259498724,32.96075527895744
42.11326297464916,3739,32.26218411907598,32.26218411907598,33.08265244711466
-18.88673702535084,3741,-29.337107175338566,29.337107175338566,33.19544014752203
-53.88673702535084,3744,-64.22675626194831,64.22675626194831,33.29909142652374
-70.88673702535084,3746,-81.40714283249801,81.40714283249801,33.39361497859884
-63.88673702535084,3749,-74.7674621309841,74.7674621309841,33.4790546334242
-11.88673702535084,3751,-22.28094802321486,22.28094802321486,33.555488525114
39.11326297464916,3753,27.65652172891179,27.65652172891179,33.623027950957095
50.11326297464916,3757,40.047237610087564,40.047237610087564,33.68181593361804
64.11326297464916,3759,52.084729361564975,52.084729361564975,33.732025506175354
71.11326297464916,3762,61.547478957119786,61.547478957119786,33.77385774234772
49.11326297464916,3764,36.58853755422382,36.58853755422382,33.80753955579771
2.1132629746491602,3766,-6.854889004773987,6.854889004773987,33.83332129428115
-35.88673702535084,3769,-48.73008285436687,48.73008285436687,33.8514741571289
-45.88673702535084,3771,-54.27323411274124,54.27323411274124,33.862287467050514
-14.88673702535084,3774,-27.759208427236167,27.759208427236167,33.866065828554426
12.11326297464916,3776,4.170817783907946,4.170817783907946,33.86312620577807
31.11326297464916,3778,18.579123478357225,18.579123478357225,33.853794953062106
38.11326297464916,3781,30.397503144910818,30.397503144910818,33.838404831847704
73.11326297464916,3783,61.27788473210573,61.27788473210573,33.817292046361786
48.11326297464916,3786,40.412586162917734,40.412586162917734,33.79079332819318
20.11326297464916,3788,9.220221363218439,9.220221363218439,33.75924309784581
10.11326297464916,3791,2.3101821853358526,2.3101821853358526,33.7229707309169
-2.8867370253508398,3793,-12.791610689574942,12.791610689574942,33.682297956994894
-3.8867370253508398,3795,-11.77699103945059,11.77699103945059,33.63753641871589
0.11326297464916024,3799,-8.964303696025326,8.964303696025326,33.58898541540674
-0.8867370253508398,3801,-8.747143314105038,8.747143314105038,33.536929850819654
-20.88673702535084,3804,-29.446140943133493,29.446140943133493,33.48163839880815
-37.88673702535084,3806,-45.570712191321064,45.570712191321064,33.42336189521673
2.1132629746491602,3808,-6.300822991124642,6.300822991124642,33.362331959271785
