emg;time
1504;2
1503;4
1503;7
1501;9
1501;11
1498;13
1498;16
1499;18
1503;20
1505;23
1505;25
1502;27
1499;30
1499;32
1501;34
1503;36
1508;39
1508;41
1506;44
1502;47
1505;49
1505;51
1502;54
1501;56
1505;58
1511;61
1511;63
1507;65
1502;67
1501;70
1499;72
1497;74
1497;77
1497;79
1497;81
1498;84
1499;87
1501;89
1502;91
1502;94
1500;96
1501;98
1504;101
1506;103
1504;105
1498;108
1498;110
1503;112
1505;115
1510;117
1511;120
1509;122
1505;124
1500;128
1496;130
1494;132
1496;135
1499;137
1499;139
1499;142
1500;144
1500;146
1499;149
1498;151
1496;153
1495;156
1496;158
1497;161
1498;163
1501;165
1501;168
1497;171
1494;173
1493;176
1492;178
1492;180
1493;183
1495;185
1498;187
1502;190
1504;192
1508;194
1507;197
1502;199
1501;202
1500;204
1497;206
1498;209
1503;211
1506;214
1505;217
1503;219
1502;221
1502;224
1501;226
1500;228
1495;231
1493;233
1491;236
1491;238
1496;240
1497;243
1496;245
1496;247
1498;250
1503;252
1506;254
1506;258
1500;260
1495;262
1493;265
1492;267
1491;269
1492;272
1494;274
1492;277
1491;279
1493;281
1493;284
1490;286
1488;288
1487;291
1486;293
1491;295
1492;299
1490;301
1490;303
1494;306
1495;308
1493;310
1490;313
1487;315
1486;318
1486;320
1491;322
1494;325
1498;327
1498;329
1495;332
1492;334
1494;336
1500;339
1506;342
1511;344
1510;347
1501;349
1499;352
1493;354
1486;356
1483;359
1481;361
1483;363
1483;366
1481;368
1481;370
1483;373
1485;375
1487;377
1488;380
1483;382
1480;385
1478;388
1477;390
1477;393
1477;395
1477;397
1477;400
1478;402
1480;404
1482;407
1483;409
1482;411
1482;414
1482;416
1492;418
1503;421
1506;423
1500;425
1494;429
1490;431
1487;434
1490;436
1497;438
1499;441
1498;443
1493;445
1492;448
1492;450
1490;452
1488;455
1486;457
1484;459
1484;462
1484;464
1483;466
1482;470
1480;472
1478;475
1477;477
1478;479
1480;482
1479;484
1477;486
1478;489
1479;491
1482;493
1485;496
1489;498
1488;500
1484;503
1483;505
1485;508
1486;510
1486;513
1484;516
1484;518
1483;520
1484;523
1486;525
1490;527
1490;530
1491;532
1494;534
1492;537
1490;539
1489;541
1487;544
1487;546
1486;549
1485;551
1486;553
1491;557
1497;559
1496;561
1496;564
1496;566
1492;568
1486;571
1484;573
1483;575
1483;578
1483;580
1484;582
1491;585
1495;587
1495;590
1490;592
1491;594
1490;598
1488;600
1485;602
1486;605
1488;607
1487;609
1484;612
1483;614
1484;616
1487;619
1488;621
1489;624
1487;626
1485;628
1486;631
1487;633
1488;635
1488;638
1490;641
1491;643
1490;646
1489;648
1489;650
1489;653
1490;655
1490;658
1494;660
1516;662
1524;665
1515;667
1507;669
1499;672
1494;674
1491;676
1491;679
1494;681
1495;684
1495;687
1495;689
1497;691
1495;694
1493;696
1490;699
1488;701
1488;703
1488;706
1489;708
1491;710
1493;713
1493;715
1493;717
1492;720
1492;722
1492;724
1492;728
1492;730
1496;732
1502;735
1506;737
1508;740
1509;742
1506;744
1501;747
1500;749
1499;751
1498;754
1499;756
1505;758
1508;761
1510;763
1509;765
1509;769
1505;771
1500;774
1498;776
1498;778
1497;781
1496;783
1494;785
1495;788
1497;790
1497;792
1495;795
1494;797
1495;799
1495;802
1494;804
1493;806
1492;809
1494;812
1497;815
1498;817
1498;819
1497;822
1497;824
1498;826
1498;829
1501;831
1506;833
1507;836
1508;838
1513;840
1510;843
1506;845
1503;848
1503;850
1503;852
1502;856
1502;858
1501;860
1499;863
1499;865
1499;867
1497;870
1495;872
1495;874
1496;877
1499;879
1503;881
1507;884
1503;886
1498;889
1496;891
1494;893
1493;897
1493;899
1493;901
1492;904
1493;906
1493;908
1493;911
1496;913
1498;915
1499;918
1498;920
1501;922
1504;925
1512;927
1519;930
1516;932
1510;934
1504;937
1499;940
1497;942
1499;945
1501;947
1503;949
1503;952
1501;954
1504;956
1503;959
1500;961
1499;964
1498;966
1496;968
1493;971
1493;973
1493;975
1492;978
1490;980
1489;983
1490;986
1490;988
1490;990
1489;993
1488;995
1489;997
1494;1000
1496;1002
1496;1005
1501;1007
1506;1009
1504;1012
1499;1014
1498;1017
1498;1019
1498;1022
1499;1025
1497;1027
1494;1030
1491;1032
1490;1035
1488;1037
1488;1039
1487;1042
1487;1044
1487;1047
1490;1049
1494;1051
1496;1054
1496;1056
1497;1059
1500;1061
1505;1063
1504;1067
1502;1069
1497;1072
1492;1074
1487;1076
1490;1079
1503;1081
1506;1084
1498;1086
1491;1088
1489;1091
1488;1093
1486;1096
1482;1098
1481;1100
1482;1103
1483;1105
1483;1108
1481;1111
1480;1114
1479;1116
1479;1118
1480;1121
1483;1123
1484;1126
1484;1128
1491;1130
1494;1133
1496;1135
1501;1138
1499;1140
1493;1142
1487;1145
1485;1147
1490;1150
1493;1153
1488;1155
1483;1158
1483;1160
1484;1163
1482;1165
1480;1167
1480;1170
1480;1172
1480;1175
1480;1177
1481;1179
1480;1182
1480;1184
1483;1187
1495;1189
1499;1191
1494;1195
1491;1197
1486;1200
1481;1202
1479;1205
1479;1207
1479;1209
1481;1212
1485;1214
1488;1217
1490;1219
1491;1221
1491;1224
1487;1226
1485;1229
1485;1231
1486;1233
1486;1236
1486;1239
1492;1242
1492;1244
1490;1246
1488;1249
1484;1251
1483;1254
1486;1256
1488;1258
1489;1261
1492;1263
1494;1266
1492;1268
1488;1270
1487;1273
1487;1275
1486;1278
1484;1281
1481;1283
1480;1286
1480;1288
1479;1291
1479;1293
1479;1296
1480;1298
1481;1300
1485;1303
1486;1305
1487;1308
1488;1310
1488;1312
1490;1315
1494;1317
1492;1320
1486;1323
1486;1325
1488;1328
1491;1330
1492;1333
1491;1335
1489;1337
1493;1340
1499;1342
1499;1345
1496;1347
1492;1349
1487;1352
1484;1354
1482;1357
1481;1359
1481;1361
1480;1364
1485;1367
1490;1370
1490;1372
1487;1374
1484;1377
1484;1379
1486;1382
1491;1384
1493;1386
1490;1389
1486;1391
1487;1394
1488;1396
1489;1398
1490;1401
1490;1403
1491;1406
1488;1409
1485;1411
1484;1414
1485;1416
1487;1419
1486;1421
1486;1424
1488;1426
1497;1428
1500;1431
1494;1433
1485;1436
1481;1438
1478;1440
1476;1443
1476;1445
1479;1448
1480;1451
1486;1453
1493;1456
1497;1458
1493;1461
1486;1463
1482;1465
1478;1468
1479;1470
1482;1473
1492;1475
1503;1477
1529;1480
1540;1482
1535;1485
1519;1487
1505;1489
1486;1492
1479;1495
1476;1498
1473;1500
1475;1502
1476;1505
1482;1507
1490;1510
1495;1512
1493;1514
1492;1517
1523;1519
1540;1522
1531;1524
1504;1527
1493;1529
1486;1531
1487;1534
1495;1537
1520;1540
1520;1542
1509;1544
1507;1547
1498;1549
1487;1552
1482;1554
1492;1556
1507;1559
1513;1561
1523;1564
1531;1566
1535;1568
1530;1571
1519;1573
1510;1576
1496;1579
1491;1581
1512;1584
1548;1586
1562;1589
1547;1591
1531;1593
1524;1596
1518;1598
1507;1601
1501;1603
1511;1606
1538;1608
1563;1610
1587;1613
1580;1615
1562;1618
1544;1620
1531;1623
1502;1626
1522;1628
1579;1631
1612;1633
1579;1635
1527;1638
1499;1640
1538;1643
1605;1645
1601;1647
1562;1650
1519;1652
1537;1655
1560;1657
1558;1659
1529;1662
1496;1665
1517;1668
1538;1670
1533;1672
1506;1675
1486;1677
1460;1680
1440;1682
1456;1684
1502;1687
1518;1689
1522;1692
1504;1694
1473;1696
1479;1699
1472;1701
1444;1704
1426;1707
1441;1710
1504;1712
1521;1714
1485;1717
1456;1719
1454;1722
1466;1724
1478;1726
1465;1729
1437;1731
1407;1734
1443;1736
1534;1738
1583;1741
1553;1743
1515;1746
1484;1748
1456;1751
1434;1754
1414;1756
1438;1759
1493;1761
1504;1763
1498;1766
1518;1768
1504;1771
1474;1773
1442;1775
1431;1778
1428;1780
1426;1783
1435;1785
1498;1787
1566;1790
1558;1793
1510;1796
1464;1798
1438;1801
1461;1803
1466;1805
1455;1808
1438;1810
1442;1813
1473;1815
1527;1817
1499;1820
1485;1822
1492;1825
1524;1827
1509;1829
1496;1832
1499;1835
1497;1838
1469;1840
1459;1842
1492;1845
1548;1847
1558;1850
1514;1852
1475;1854
1482;1857
1500;1859
1502;1862
1461;1864
1441;1866
1446;1869
1481;1871
1541;1874
1541;1876
1497;1879
1462;1882
1447;1884
1445;1887
1464;1889
1473;1891
1459;1894
1457;1896
1481;1899
1512;1901
1570;1904
1562;1906
1522;1908
1490;1911
1471;1913
1460;1916
1453;1918
1423;1921
1420;1924
1425;1926
1458;1929
1491;1931
1522;1933
1523;1936
1489;1938
1454;1941
1436;1943
1445;1945
1459;1948
1476;1950
1487;1953
1478;1955
1467;1957
1450;1960
1430;1963
1455;1966
1473;1968
1473;1970
1458;1973
1441;1975
1426;1978
1442;1980
1462;1982
1490;1985
1526;1987
1539;1990
1508;1992
1481;1994
1450;1997
1433;1999
1423;2002
1420;2004
1430;2008
1464;2010
1488;2012
1492;2015
1523;2017
1531;2020
1503;2022
1463;2024
1457;2027
1481;2029
1488;2032
1476;2034
1455;2036
1458;2039
1489;2041
1527;2044
1531;2046
1518;2049
1494;2052
1481;2054
1472;2057
1497;2059
1515;2061
1510;2064
1469;2066
1468;2069
1497;2071
1530;2073
1544;2076
1537;2078
1508;2081
1481;2083
1462;2085
1457;2088
1466;2091
1490;2094
1503;2096
1491;2099
1482;2101
1477;2103
1509;2106
1508;2108
1485;2111
1465;2113
1451;2115
1441;2118
1453;2120
1483;2123
1524;2125
1526;2127
1503;2130
1486;2132
1514;2136
1556;2138
1559;2140
1536;2143
1500;2145
1475;2148
1475;2150
1473;2152
1461;2155
1485;2157
1503;2160
1493;2162
1502;2164
1522;2167
1506;2169
1469;2172
1437;2174
1433;2177
1435;2180
1445;2182
1462;2185
1481;2187
1467;2190
1462;2192
1461;2194
1458;2197
1481;2199
1535;2202
1549;2204
1522;2206
1502;2209
1491;2211
1495;2214
1509;2216
1503;2219
1477;2222
1449;2224
1434;2227
1435;2229
1497;2231
1565;2234
1571;2236
1546;2239
1529;2241
1494;2243
1470;2246
1445;2248
1437;2251
1473;2253
1490;2255
1490;2258
1475;2260
1483;2264
1495;2266
1497;2268
1480;2271
1512;2273
1567;2276
1582;2278
1570;2281
1527;2283
1482;2285
1455;2288
1447;2290
1447;2293
1471;2295
1487;2297
1489;2300
1500;2302
1495;2306
1487;2308
1518;2310
1527;2313
1514;2315
1492;2318
1519;2320
1525;2322
1490;2325
1459;2327
1447;2330
1449;2332
1450;2334
1450;2337
1484;2339
1554;2342
1581;2344
1551;2347
1519;2350
1495;2352
1488;2355
1480;2357
1473;2360
1471;2362
1511;2364
1526;2367
1499;2369
1475;2372
1459;2374
1453;2376
1465;2379
1494;2381
1494;2384
1498;2386
1517;2388
1526;2392
1518;2394
1515;2397
1541;2399
1550;2401
1531;2404
1503;2406
1488;2409
1488;2411
1495;2413
1494;2416
1472;2418
1461;2421
1475;2423
1526;2425
1558;2428
1534;2430
1522;2434
1525;2436
1508;2439
1477;2441
1486;2443
1529;2446
1543;2448
1514;2451
1473;2453
1453;2455
1459;2458
1500;2460
1515;2463
1494;2465
1487;2467
1500;2470
1513;2472
1532;2476
1521;2478
1488;2480
1488;2483
1545;2485
1595;2488
1598;2490
1541;2492
1505;2495
1597;2497
1657;2500
1626;2502
1556;2504
1509;2507
1499;2509
1490;2512
1462;2514
1434;2518
1439;2520
1465;2522
1524;2525
1625;2527
1633;2530
1544;2532
1468;2534
1450;2537
1445;2539
1450;2542
1497;2544
1537;2546
1513;2549
1464;2551
1423;2554
1412;2556
1408;2558
1424;2562
1438;2564
1471;2567
1467;2569
1462;2571
1486;2574
1483;2576
1457;2579
1500;2581
1530;2583
1507;2586
1449;2588
1419;2591
1436;2593
1453;2595
1442;2598
1438;2600
1485;2604
1515;2606
1499;2609
1455;2611
1423;2613
1422;2616
1450;2618
1454;2621
1450;2623
1489;2625
1498;2628
1480;2630
1438;2633
1462;2635
1479;2637
1479;2640
1481;2642
1469;2646
1502;2648
1549;2650
1541;2653
1474;2655
1434;2658
1436;2660
1476;2662
1493;2665
1488;2667
1455;2670
1428;2672
1425;2674
1446;2677
1470;2679
1463;2682
1456;2684
1495;2686
1519;2690
1536;2692
1554;2695
1568;2697
1527;2699
1479;2702
1448;2704
1456;2707
1498;2709
1531;2712
1500;2714
1464;2716
1440;2719
1448;2721
1473;2724
1505;2726
1516;2728
1495;2732
1474;2734
1458;2737
1451;2739
1454;2741
1501;2744
1558;2746
1595;2749
1552;2751
1525;2753
1488;2756
1467;2758
1455;2761
1455;2763
1458;2765
1461;2768
1450;2770
1457;2774
1509;2776
1557;2778
1558;2781
1532;2783
1520;2786
1509;2788
1537;2791
1571;2793
1586;2795
1577;2798
1550;2800
1506;2803
1468;2805
1444;2807
1505;2810
1577;2812
1577;2816
1533;2818
1505;2820
1519;2823
1543;2825
1553;2828
1534;2830
1516;2832
1505;2835
1504;2837
1515;2840
1510;2842
1493;2844
1464;2847
1456;2849
1450;2852
1434;2854
1444;2856
1455;2860
1445;2862
1426;2865
1444;2867
1478;2869
1506;2872
1501;2874
1477;2877
1462;2879
1444;2882
1443;2884
1468;2886
1512;2889
1523;2891
1515;2894
1493;2896
1457;2898
1438;2902
1439;2904
1459;2907
1466;2909
1477;2911
1499;2914
1534;2916
1525;2919
1494;2921
1486;2923
1516;2926
1516;2928
1484;2931
1469;2933
1461;2935
1459;2938
1442;2940
1447;2944
1468;2946
1493;2948
1484;2951
1475;2953
1524;2956
1572;2958
1569;2960
1525;2963
1489;2965
1453;2968
1435;2970
1454;2973
1521;2975
1543;2977
1504;2980
1454;2982
1430;2985
1431;2988
1462;2990
1503;2993
1501;2995
1484;2998
1455;3000
1480;3002
1526;3005
1558;3007
1548;3010
1511;3012
1466;3014
1448;3017
1461;3019
1469;3022
1472;3024
1460;3026
1457;3030
1483;3032
1493;3035
1496;3037
1488;3039
1485;3042
1521;3044
1562;3047
1571;3049
1538;3052
1494;3054
1468;3056
1456;3059
1457;3061
1495;3064
1508;3066
1496;3068
1487;3072
1476;3074
1480;3077
1495;3079
1503;3081
1499;3084
1499;3086
1489;3089
1471;3091
1458;3093
1450;3096
1446;3098
1451;3101
1508;3103
1577;3105
1567;3108
1532;3110
1512;3113
1501;3116
1497;3119
1483;3121
1461;3123
1487;3126
1536;3128
1562;3131
1532;3133
1515;3135
1518;3138
1515;3140
1510;3143
1497;3145
1482;3147
1499;3150
1527;3152
1544;3155
1565;3158
1579;3160
1562;3163
1532;3165
1467;3168
1457;3170
1469;3172
1479;3175
1469;3177
1455;3180
1458;3182
1528;3185
1553;3187
1519;3189
1480;3192
1460;3194
1485;3197
1498;3200
1480;3202
1497;3205
1536;3207
1542;3210
1527;3212
1511;3214
1495;3217
1487;3219
1501;3222
1574;3224
1608;3226
1587;3229
1528;3231
1480;3234
1453;3236
1464;3238
1510;3241
1523;3244
1501;3247
1488;3249
1511;3251
1517;3254
1499;3256
1490;3259
1504;3261
1509;3263
1501;3266
1476;3268
1463;3271
1472;3273
1503;3275
1507;3278
1494;3280
1491;3283
1495;3286
1511;3289
1510;3291
1500;3293
1519;3296
1536;3298
1520;3301
1501;3303
1490;3305
1486;3308
1493;3310
1492;3313
1501;3315
1504;3317
1512;3320
1522;3322
1520;3325
1500;3328
1479;3330
1470;3333
1479;3335
1482;3338
1477;3340
1482;3342
1502;3345
1525;3347
1528;3350
1515;3352
1494;3354
1492;3357
1529;3359
1569;3362
1571;3364
1535;3367
1510;3369
1491;3372
1484;3375
1499;3377
1526;3380
1533;3382
1549;3384
1569;3387
1559;3389
1516;3392
1504;3394
1508;3396
1514;3399
1518;3401
1516;3404
1572;3406
1600;3408
1581;3411
1524;3414
1491;3417
1480;3419
1478;3421
1480;3424
1477;3426
1483;3429
1490;3431
1480;3433
1489;3436
1498;3438
1490;3441
1509;3443
1554;3445
1566;3448
1552;3450
1542;3453
1537;3456
1547;3459
1555;3461
1586;3463
1583;3466
1538;3468
1493;3471
1462;3473
1484;3475
1514;3478
1525;3480
1517;3483
1494;3485
1465;3487
1452;3490
1473;3492
1548;3495
1568;3497
1552;3500
1516;3503
1494;3505
1504;3508
1541;3510
1555;3512
1535;3515
1483;3517
1449;3520
1440;3522
1463;3524
1491;3527
1486;3529
1461;3532
1451;3534
1464;3537
1515;3539
1572;3542
1576;3545
1517;3547
1472;3550
1462;3552
1485;3554
1494;3557
1469;3559
1462;3562
1486;3564
1537;3566
1545;3569
1543;3571
1533;3574
1509;3576
1480;3578
1469;3581
1458;3584
1454;3587
1503;3589
1574;3591
1608;3594
1575;3596
1509;3599
1470;3601
1454;3603
1475;3606
1511;3608
1510;3611
1481;3613
1484;3616
1485;3618
1478;3620
1478;3623
1490;3625
1533;3629
1591;3631
1595;3633
1528;3636
1482;3638
1478;3641
1521;3643
1550;3645
1521;3648
1469;3650
1443;3653
1438;3655
1476;3657
1533;3660
1544;3662
1518;3665
1474;3667
1432;3670
1433;3673
1458;3675
1469;3678
1455;3680
1432;3682
1432;3685
1480;3687
1514;3690
1506;3692
1488;3695
1480;3697
1490;3699
1495;3702
1476;3704
1458;3707
1469;3709
1494;3712
1508;3715
1495;3717
1494;3720
1505;3722
1490;3724
1481;3727
1476;3729
1467;3732
1456;3734
1446;3736
1468;3739
1499;3741
1504;3744
1475;3746
1454;3748
1494;3751
1552;3753
1567;3757
1561;3759
1538;3761
1493;3764
1448;3766
1440;3769
1453;3771
1486;3774
1514;3776
1513;3778
1482;3781
1464;3783
1458;3786
1470;3788
1482;3790
1495;3793
1500;3795
1495;3799
1505;3801
1495;3803
1485;3806
1497;3808
1511;3811
1513;3813
1494;3815
1474;3818
1453;3820
1451;3823
1488;3825
1528;3827
1545;3830
1549;3832
1552;3835
1516;3837
1477;3840
1460;3843
1471;3845
1510;3848
1544;3850
1511;3853
1477;3855
1462;3857
1455;3860
1454;3862
1474;3865
1487;3867
1559;3869
1609;3872
1613;3874
1554;3877
1492;3879
1443;3881
1432;3885
1444;3887
1455;3890
1450;3892
1449;3894
1460;3897
1499;3899
1513;3902
1496;3904
1454;3906
1441;3909
1452;3911
1462;3914
1477;3916
1467;3918
1489;3921
1542;3923
1573;3927
1544;3929
1501;3931
1464;3934
1467;3936
1470;3939
1467;3941
1458;3944
1449;3946
1460;3948
1473;3951
1486;3953
1511;3956
1531;3958
1521;3960
1489;3963
1459;3965
1443;3969
1438;3971
1438;3973
1440;3976
1442;3978
1439;3981
1443;3983
1457;3985
1492;3988
1502;3990
1477;3993
1479;3995
1504;3997
1515;4000
1511;4002
1503;4005
1493;4007
1481;4009
1486;4013
1494;4015
1484;4018
1464;4020
1460;4023
1476;4025
1488;4027
1479;4030
1467;4032
1462;4035
1483;4037
1514;4039
1505;4042
1474;4044
1477;4047
1502;4049
1507;4051
1510;4055
1489;4057
1469;4060
1488;4062
1518;4064
1553;4067
1547;4069
1518;4072
1489;4074
1492;4076
1488;4079
1475;4081
1479;4084
1475;4086
1467;4088
1447;4091
1442;4093
1466;4097
1479;4099
1489;4101
1496;4104
1487;4106
1461;4109
1438;4111
1478;4113
1529;4116
1558;4118
1558;4121
1516;4123
1470;4126
1449;4128
1447;4130
1462;4133
1505;4135
1536;4139
1538;4141
1546;4143
1562;4146
1525;4148
1495;4151
1477;4153
1468;4155
1464;4158
1471;4160
1488;4163
1515;4165
1527;4167
1514;4170
1494;4172
1490;4175
1481;4177
1486;4179
1515;4183
1531;4185
1518;4188
1531;4190
1530;4192
1498;4195
1471;4197
1462;4200
1465;4202
1473;4205
1477;4207
1475;4209
1467;4212
1454;4214
1463;4217
1490;4219
1503;4221
1500;4225
1479;4227
1483;4230
1485;4232
1482;4234
1471;4237
1458;4239
1455;4242
1457;4244
1476;4246
1508;4249
1547;4251
1539;4254
1519;4256
1501;4258
1506;4261
1523;4263
1522;4267
1529;4269
1523;4271
1527;4274
1542;4276
1527;4279
1521;4281
1529;4283
1524;4286
1492;4288
1489;4291
1513;4293
1520;4296
1530;4298
1517;4300
1476;4303
1480;4305
1509;4308
1513;4311
1481;4313
1457;4316
1453;4318
1463;4321
1467;4323
1506;4325
1534;4328
1519;4330
1475;4333
1476;4335
1515;4337
1516;4340
1489;4342
1462;4345
1453;4347
1449;4349
1473;4353
1494;4355
1488;4358
1474;4360
1457;4363
1456;4365
1465;4367
1497;4370
1522;4372
1555;4375
1557;4377
1554;4379
1523;4382
1481;4384
1443;4387
1426;4389
1428;4391
1441;4395
1477;4397
1538;4400
1549;4402
1500;4404
1460;4407
1466;4409
1493;4412
1506;4414
1483;4416
1468;4419
1479;4421
1479;4424
1471;4426
1472;4428
1476;4431
1479;4433
1469;4436
1460;4439
1452;4442
1488;4444
1526;4446
1527;4449
1491;4451
1481;4454
1466;4456
1448;4458
1474;4461
1504;4463
1504;4466
1504;4468
1534;4470
1544;4473
1527;4475
1466;4478
1444;4481
1444;4483
1452;4486
1501;4488
1587;4491
1605;4493
1543;4495
1477;4498
1451;4500
1504;4503
1538;4505
1526;4507
1464;4510
1448;4512
1454;4515
1459;4517
1459;4520
1453;4523
1439;4525
1431;4528
1473;4530
1533;4533
1584;4535
1571;4537
1518;4540
1467;4542
1443;4545
1433;4547
1440;4549
1447;4552
1460;4554
1471;4557
1477;4559
1486;4561
1489;4564
1463;4567
1456;4570
1473;4572
1484;4574
1486;4577
1507;4579
1524;4582
1517;4584
1484;4586
1453;4589
1444;4591
1457;4594
1529;4596
1624;4599
1625;4601
1585;4603
1554;4606
1512;4609
1482;4612
1460;4614
1447;4616
1460;4619
1483;4621
1484;4624
1473;4626
1462;4628
1464;4631
1514;4633
1533;4636
1510;4638
1483;4640
1480;4643
1480;4645
1525;4648
1555;4651
1570;4653
1545;4656
1510;4658
1465;4661
1457;4663
1481;4665
1489;4668
1479;4670
1462;4673
1466;4675
1471;4678
1489;4680
1534;4682
1531;4685
1520;4687
1519;4690
1504;4692
1486;4695
1471;4698
1474;4700
1470;4703
1481;4705
1483;4707
1489;4710
1498;4712
1512;4715
1494;4717
1470;4719
1451;4722
1466;4724
1537;4727
1606;4729
1615;4731
1572;4734
1520;4737
1474;4740
1445;4742
1435;4745
1440;4747
1451;4749
1449;4752
1453;4754
1458;4757
1465;4759
1480;4761
1473;4764
1457;4766
1460;4769
1487;4771
1499;4773
1493;4776
1491;4779
1536;4782
1568;4784
1568;4786
1522;4789
1481;4791
1463;4794
1451;4796
1457;4798
1472;4801
1496;4803
1529;4806
1540;4808
1539;4810
1495;4813
1465;4815
1460;4818
1460;4820
1463;4824
1482;4826
1501;4828
1515;4831
1528;4833
1540;4836
1554;4838
1550;4840
1519;4843
1480;4845
1462;4848
1467;4850
1514;4852
1542;4855
1541;4857
1506;4860
1484;4862
1471;4865
1470;4868
1474;4870
1475;4873
1476;4875
1486;4877
1488;4880
1479;4882
1467;4885
1456;4887
1453;4889
1459;4892
1468;4894
1467;4897
1484;4899
1520;4901
1539;4904
1560;4907
1567;4910
1561;4912
1525;4915
1495;4917
1473;4919
1467;4922
1470;4924
1473;4927
1483;4929
1492;4931
1520;4934
1519;4936
1513;4939
1508;4941
1526;4943
1536;4946
1515;4948
1495;4952
1479;4954
1476;4956
1474;4959
1474;4961
1485;4964
1488;4966
1476;4968
1469;4971
1469;4973
1470;4976
1470;4978
1470;4981
1472;4983
1473;4985
1474;4988
1476;4990
1479;4994
1482;4996
1485;4998
1487;5001
1489;5003
1491;5006
1494;5008
1501;5010
1514;5013
1533;5015
1549;5018
1550;5020
1547;5022
1547;5025
1540;5027
1532;5030
1519;5032
1511;5035
1507;5038
1504;5040
1507;5043
1509;5045
1508;5048
1507;5050
1506;5052
1505;5055
1504;5057
1502;5060
1501;5062
1500;5064
1499;5067
1498;5069
1501;5072
1505;5074
1502;5076
1496;5080
1494;5082
1490;5085
1488;5087
1486;5089
1484;5092
1483;5094
1483;5097
1487;5099
1492;5101
1501;5104
1505;5106
1504;5109
1498;5111
1491;5114
1484;5116
1484;5118
1487;5122
1493;5124
1497;5127
1494;5129
1488;5131
1486;5134
1486;5136
1486;5139
1485;5141
1487;5143
1493;5146
1508;5148
1516;5151
1508;5153
1500;5155
1496;5158
1494;5160
1493;5164
1494;5166
1495;5168
1496;5171
1500;5173
1509;5176
1514;5178
1510;5180
1505;5183
1501;5185
1500;5188
1499;5190
1499;5192
1500;5195
1500;5197
1503;5200
1505;5202
1503;5204
1512;5208
1526;5210
1533;5213
1525;5215
1514;5218
1506;5220
1502;5222
1499;5225
1500;5227
1508;5230
1521;5232
1523;5234
1517;5237
1507;5239
1497;5242
1491;5244
1490;5246
1488;5250
1487;5252
1487;5255
1487;5257
1487;5259
1487;5262
1487;5264
1486;5267
1486;5269
1486;5271
1486;5274
1486;5276
1486;5279
1486;5281
1486;5283
1486;5286
1487;5288
1486;5292
1487;5294
1488;5297
1494;5299
1509;5301
1512;5304
1504;5306
1495;5309
1492;5311
1503;5313
1517;5316
1518;5318
1508;5321
1499;5323
1494;5325
1489;5328
1487;5330
1490;5334
1507;5336
1531;5338
1543;5341
1530;5343
1511;5346
1500;5348
1495;5350
1493;5353
1493;5355
1492;5358
1493;5360
1494;5362
1499;5365
1503;5367
1507;5370
1512;5372
1511;5376
1507;5378
1504;5380
1505;5383
1507;5385
1509;5388
1514;5390
1520;5392
1528;5395
1533;5397
1528;5400
1519;5402
1511;5404
1505;5407
1503;5409
1501;5412
1500;5414
1498;5416
1498;5420
1501;5422
1500;5425
1502;5427
1508;5429
1518;5432
1514;5434
1507;5437
1501;5439
1496;5442
1492;5444
1489;5446
1488;5449
1491;5451
1497;5454
1504;5456
1504;5458
1500;5462
1495;5464
1495;5467
1501;5469
1508;5471
1507;5474
1502;5476
1495;5479
1499;5481
1519;5483
1516;5486
1502;5488
1491;5491
1486;5493
1483;5495
1480;5498
1479;5500
1478;5504
1477;5506
1477;5508
1476;5511
1477;5513
1484;5516
1494;5518
1498;5521
1496;5523
1488;5525
1481;5528
1478;5530
1476;5533
1474;5535
1474;5537
1472;5540
1471;5542
1469;5545
1476;5548
1487;5550
1519;5553
1530;5555
1525;5558
1506;5560
1487;5562
1473;5565
1465;5567
1462;5570
1461;5572
1460;5574
1460;5577
1460;5579
1460;5582
1461;5584
1461;5587
1464;5590
1471;5592
1477;5595
1479;5597
1482;5600
1486;5602
1491;5604
1488;5607
1483;5609
1479;5612
1478;5614
1476;5616
1473;5619
1470;5621
1473;5624
1473;5626
1470;5628
1469;5632
1468;5634
1468;5637
1469;5639
1469;5641
1469;5644
1472;5646
1474;5649
1476;5651
1480;5653
1498;5656
1511;5658
1509;5661
1497;5663
1489;5666
1487;5668
1496;5670
1495;5673
1485;5676
1479;5679
1473;5681
1470;5683
1470;5686
1472;5688
1472;5691
1471;5693
1470;5695
1468;5698
1468;5700
1468;5703
1469;5705
1470;5707
1470;5710
1471;5712
1473;5715
1479;5718
1486;5720
1492;5723
1493;5725
1488;5728
1488;5730
1486;5732
1483;5735
1486;5737
1494;5740
1494;5742
1490;5745
1484;5747
1485;5749
1486;5752
1485;5754
1481;5757
1476;5760
1472;5762
1471;5765
1470;5767
1470;5770
1472;5772
1475;5774
1484;5777
1491;5779
1490;5782
1484;5784
1475;5786
1471;5789
1469;5791
1468;5794
1468;5796
1468;5798
1470;5801
1472;5804
1471;5807
1474;5809
1484;5811
1483;5814
1478;5816
1471;5819
1468;5821
1467;5823
1471;5826
1473;5828
1473;5831
1470;5833
1466;5836
1463;5838
1462;5840
1462;5843
1467;5846
1473;5849
1479;5851
1481;5853
1483;5856
1485;5858
1482;5861
1476;5863
1468;5865
1463;5868
1459;5870
1456;5873
1454;5875
1463;5877
1478;5880
1488;5882
1480;5885
1466;5888
1458;5890
1454;5893
1451;5895
1450;5898
1451;5900
1452;5903
1453;5905
1452;5907
1451;5910
1451;5912
1452;5915
1452;5917
1453;5919
1454;5922
1454;5924
1456;5927
1458;5929
1460;5932
1461;5935
1463;5937
1462;5940
1460;5942
1460;5944
1461;5947
1461;5949
1462;5952
1464;5954
1471;5956
1487;5959
1511;5961
1512;5964
1495;5966
1484;5968
1474;5971
1470;5974
1468;5977
1467;5979
1467;5982
1467;5984
1467;5986
1468;5989
1468;5991
1470;5994
1475;5996
1483;5998
1487;6001
1482;6003
1477;6006
1475;6008
1476;6010
1477;6013
1475;6016
1474;6019
1474;6021
1475;6023
1475;6026
1475;6028
1476;6031
1476;6033
1480;6035
1481;6038
1480;6040
1480;6043
1481;6045
1484;6047
1493;6050
1499;6052
1501;6055
1497;6057
1492;6061
1489;6063
1495;6065
1513;6068
1520;6070
1517;6073
1506;6075
1496;6077
1494;6080
1496;6082
1500;6085
1498;6087
1492;6089
1488;6092
1487;6094
1487;6097
1486;6099
1485;6102
1483;6105
1483;6107
1483;6110
1483;6112
1484;6114
1485;6117
1485;6119
1487;6122
1489;6124
1495;6126
1502;6129
1505;6131
1504;6134
1502;6136
1495;6139
1490;6141
1487;6144
1486;6147
1486;6149
1486;6152
1486;6154
1487;6156
1494;6159
1505;6161
1513;6164
1517;6166
1512;6168
1502;6171
1499;6173
1499;6176
1500;6178
1500;6180
1500;6183
1498;6185
1498;6189
1498;6191
1499;6193
1501;6196
1505;6198
1512;6201
1516;6203
1523;6206
1522;6208
1516;6210
1512;6213
1515;6215
1519;6218
1518;6220
1516;6222
1516;6225
1516;6227
1515;6231
1513;6233
1513;6235
1513;6238
1516;6240
1524;6243
1540;6245
1548;6247
1541;6250
1531;6252
1525;6255
1518;6257
1515;6259
1514;6262
1513;6264
1512;6267
1512;6269
1512;6273
1513;6275
1515;6277
1515;6280
1518;6282
1530;6285
1534;6287
1529;6289
1521;6292
1517;6294
1514;6297
1513;6299
1511;6301
1510;6304
1510;6306
1510;6309
1510;6311
1510;6313
1510;6317
1510;6319
1516;6322
1518;6324
1517;6326
1525;6329
1533;6331
1535;6334
1527;6336
1516;6339
1511;6341
1508;6343
1507;6346
1506;6348
1506;6351
1505;6353
1508;6355
1511;6359
1515;6361
1518;6364
1526;6366
1525;6368
1519;6371
1512;6373
1509;6376
1507;6378
1505;6380
1505;6383
1504;6385
1511;6388
1525;6390
1528;6392
1521;6395
1516;6397
1513;6401
1510;6403
1507;6406
1506;6408
1505;6410
1504;6413
1502;6415
1499;6418
1499;6420
1499;6422
1500;6425
1501;6427
1502;6430
1503;6432
1504;6434
1507;6437
1507;6439
1502;6443
1503;6445
1503;6447
1502;6450
1500;6452
1498;6455
1496;6457
1495;6459
1496;6462
1496;6464
1499;6467
1509;6469
1518;6471
1519;6474
1515;6476
1506;6479
1501;6481
1500;6483
1502;6487
1501;6489
1497;6492
1496;6494
1495;6496
1495;6499
1497;6501
1499;6504
1497;6506
1494;6509
1492;6511
1490;6513
1489;6516
1490;6518
1491;6521
1492;6523
1492;6525
1492;6529
1495;6531
1499;6534
1502;6536
1500;6538
1499;6541
1501;6543
1505;6546
1505;6548
1500;6550
1493;6553
1490;6555
1489;6558
1491;6560
1493;6562
1494;6565
1502;6567
1507;6571
1504;6573
1500;6575
1495;6578
1492;6580
1492;6583
1492;6585
1492;6587
1490;6590
1489;6592
1491;6595
1493;6597
1497;6600
1496;6602
1492;6604
1489;6607
1488;6609
1488;6612
1487;6615
1486;6617
1486;6620
1487;6622
1493;6625
1497;6627
